EOG,2017-07-18,09:30:00,92.25,92.25,92.25,92.25,38546
EOG,2017-07-18,09:31:00,92.35,92.35,92.22,92.28,2500
EOG,2017-07-18,09:32:00,92.27,92.42,92.27,92.36,2200
EOG,2017-07-18,09:33:00,92.36,92.37,92.07,92.30,5921
EOG,2017-07-18,09:34:00,92.26,92.32,92.17,92.32,1229
EOG,2017-07-18,09:35:00,92.34,92.35,92.28,92.28,2186
EOG,2017-07-18,09:36:00,92.35,92.35,92.18,92.18,3837
EOG,2017-07-18,09:37:00,92.16,92.29,92.16,92.19,2400
EOG,2017-07-18,09:38:00,92.24,92.37,92.19,92.37,3500
EOG,2017-07-18,09:39:00,92.37,92.45,92.36,92.36,1200
EOG,2017-07-18,09:40:00,92.33,92.43,92.29,92.39,5200
EOG,2017-07-18,09:41:00,92.35,92.37,92.19,92.20,3200
EOG,2017-07-18,09:42:00,92.28,92.28,92.24,92.28,1200
EOG,2017-07-18,09:43:00,92.28,92.36,92.27,92.36,700
EOG,2017-07-18,09:44:00,92.32,92.41,92.31,92.31,5700
EOG,2017-07-18,09:45:00,92.29,92.34,92.28,92.31,1700
EOG,2017-07-18,09:46:00,92.35,92.35,92.23,92.31,9100
EOG,2017-07-18,09:47:00,92.29,92.29,92.24,92.25,3800
EOG,2017-07-18,09:48:00,92.29,92.30,92.22,92.28,7089
EOG,2017-07-18,09:49:00,92.26,92.28,92.19,92.26,11355
EOG,2017-07-18,09:50:00,92.28,92.28,92.22,92.28,7230
EOG,2017-07-18,09:51:00,92.29,92.30,92.23,92.23,2105
EOG,2017-07-18,09:52:00,92.24,92.31,92.20,92.31,3661
EOG,2017-07-18,09:53:00,92.31,92.38,92.30,92.38,1134
EOG,2017-07-18,09:54:00,92.33,92.39,92.32,92.39,5450
EOG,2017-07-18,09:55:00,92.34,92.40,92.31,92.33,3887
EOG,2017-07-18,09:56:00,92.35,92.37,92.22,92.25,5381
EOG,2017-07-18,09:57:00,92.29,92.31,92.22,92.30,2550
EOG,2017-07-18,09:58:00,92.27,92.31,92.24,92.24,1400
EOG,2017-07-18,09:59:00,92.24,92.31,92.23,92.25,11447
EOG,2017-07-18,10:00:00,92.25,92.37,92.25,92.34,1800
EOG,2017-07-18,10:01:00,92.33,92.34,92.30,92.30,2300
EOG,2017-07-18,10:02:00,92.30,92.34,92.27,92.33,4300
EOG,2017-07-18,10:03:00,92.30,92.33,92.19,92.20,5800
EOG,2017-07-18,10:04:00,92.21,92.29,92.19,92.28,2765
EOG,2017-07-18,10:05:00,92.30,92.30,92.22,92.26,6234
EOG,2017-07-18,10:06:00,92.24,92.26,92.23,92.25,4400
EOG,2017-07-18,10:07:00,92.24,92.28,92.23,92.28,2400
EOG,2017-07-18,10:08:00,92.29,92.30,92.25,92.26,3100
EOG,2017-07-18,10:09:00,92.25,92.32,92.25,92.32,1200
EOG,2017-07-18,10:10:00,92.30,92.36,92.30,92.33,8163
EOG,2017-07-18,10:11:00,92.37,92.37,92.32,92.35,10545
EOG,2017-07-18,10:12:00,92.34,92.39,92.32,92.35,5300
EOG,2017-07-18,10:13:00,92.36,92.38,92.34,92.35,1228
EOG,2017-07-18,10:14:00,92.32,92.34,92.28,92.33,5550
EOG,2017-07-18,10:15:00,92.35,92.37,92.31,92.33,4805
EOG,2017-07-18,10:16:00,92.33,92.35,92.31,92.32,2475
EOG,2017-07-18,10:17:00,92.29,92.30,92.27,92.29,9944
EOG,2017-07-18,10:18:00,92.29,92.29,92.21,92.22,6600
EOG,2017-07-18,10:19:00,92.22,92.22,92.18,92.20,4300
EOG,2017-07-18,10:20:00,92.19,92.20,92.12,92.14,12450
EOG,2017-07-18,10:21:00,92.15,92.16,92.11,92.15,11700
EOG,2017-07-18,10:22:00,92.15,92.15,92.10,92.10,11737
EOG,2017-07-18,10:23:00,92.11,92.14,92.11,92.11,5629
EOG,2017-07-18,10:24:00,92.13,92.14,92.11,92.11,1100
EOG,2017-07-18,10:25:00,92.11,92.15,92.10,92.15,2928
EOG,2017-07-18,10:26:00,92.12,92.13,92.09,92.11,5200
EOG,2017-07-18,10:27:00,92.12,92.12,92.08,92.12,3944
EOG,2017-07-18,10:28:00,92.13,92.13,92.09,92.09,2200
EOG,2017-07-18,10:29:00,92.10,92.11,92.09,92.09,2222
EOG,2017-07-18,10:30:00,92.09,92.16,92.08,92.15,14288
EOG,2017-07-18,10:31:00,92.14,92.21,92.14,92.21,6130
EOG,2017-07-18,10:32:00,92.24,92.32,92.22,92.32,2100
EOG,2017-07-18,10:33:00,92.29,92.33,92.26,92.33,1500
EOG,2017-07-18,10:34:00,92.33,92.38,92.32,92.38,1450
EOG,2017-07-18,10:35:00,92.36,92.39,92.33,92.34,1200
EOG,2017-07-18,10:36:00,92.33,92.38,92.32,92.36,4300
EOG,2017-07-18,10:37:00,92.37,92.37,92.29,92.31,2810
EOG,2017-07-18,10:38:00,92.32,92.33,92.30,92.30,4459
EOG,2017-07-18,10:39:00,92.27,92.30,92.25,92.29,3707
EOG,2017-07-18,10:40:00,92.27,92.28,92.22,92.22,6620
EOG,2017-07-18,10:41:00,92.22,92.24,92.22,92.22,2950
EOG,2017-07-18,10:42:00,92.23,92.26,92.19,92.23,10937
EOG,2017-07-18,10:43:00,92.20,92.22,92.12,92.14,15510
EOG,2017-07-18,10:44:00,92.15,92.24,92.14,92.24,4184
EOG,2017-07-18,10:45:00,92.20,92.23,92.15,92.15,4600
EOG,2017-07-18,10:46:00,92.17,92.17,92.15,92.17,4025
EOG,2017-07-18,10:47:00,92.18,92.28,92.18,92.23,8140
EOG,2017-07-18,10:48:00,92.25,92.25,92.19,92.19,2898
EOG,2017-07-18,10:49:00,92.17,92.19,92.15,92.16,4802
EOG,2017-07-18,10:50:00,92.15,92.24,92.15,92.21,15200
EOG,2017-07-18,10:51:00,92.16,92.23,92.12,92.12,10890
EOG,2017-07-18,10:52:00,92.15,92.17,92.13,92.14,12767
EOG,2017-07-18,10:53:00,92.14,92.20,92.12,92.20,5614
EOG,2017-07-18,10:54:00,92.20,92.27,92.19,92.19,2360
EOG,2017-07-18,10:55:00,92.19,92.20,92.18,92.20,2950
EOG,2017-07-18,10:56:00,92.21,92.30,92.21,92.30,2381
EOG,2017-07-18,10:57:00,92.28,92.31,92.23,92.25,3928
EOG,2017-07-18,10:58:00,92.24,92.27,92.21,92.26,7609
EOG,2017-07-18,10:59:00,92.27,92.33,92.25,92.33,1400
EOG,2017-07-18,11:00:00,92.32,92.36,92.29,92.34,3000
EOG,2017-07-18,11:01:00,92.36,92.38,92.33,92.38,6105
EOG,2017-07-18,11:02:00,92.39,92.42,92.36,92.38,2700
EOG,2017-07-18,11:03:00,92.38,92.39,92.36,92.36,1150
EOG,2017-07-18,11:04:00,92.37,92.38,92.33,92.35,7517
EOG,2017-07-18,11:05:00,92.37,92.37,92.33,92.37,800
EOG,2017-07-18,11:06:00,92.34,92.38,92.32,92.37,9129
EOG,2017-07-18,11:07:00,92.38,92.39,92.35,92.39,2900
EOG,2017-07-18,11:08:00,92.39,92.40,92.32,92.33,11000
EOG,2017-07-18,11:09:00,92.33,92.35,92.31,92.32,2475
EOG,2017-07-18,11:10:00,92.31,92.34,92.31,92.32,2115
EOG,2017-07-18,11:11:00,92.31,92.35,92.30,92.35,2125
EOG,2017-07-18,11:12:00,92.32,92.35,92.31,92.32,5439
EOG,2017-07-18,11:15:00,92.19,92.19,92.15,92.17,2100
EOG,2017-07-18,11:16:00,92.16,92.18,92.16,92.18,1600
EOG,2017-07-18,11:17:00,92.17,92.17,92.14,92.15,3998
EOG,2017-07-18,11:18:00,92.16,92.16,92.13,92.15,6278
EOG,2017-07-18,11:19:00,92.14,92.15,92.11,92.15,2879
EOG,2017-07-18,11:20:00,92.14,92.16,92.12,92.13,4000
EOG,2017-07-18,11:21:00,92.13,92.15,92.11,92.14,2400
EOG,2017-07-18,11:22:00,92.12,92.15,92.10,92.15,7821
EOG,2017-07-18,11:23:00,92.13,92.25,92.13,92.22,5220
EOG,2017-07-18,11:24:00,92.24,92.24,92.16,92.16,3372
EOG,2017-07-18,11:25:00,92.14,92.17,92.04,92.05,3810
EOG,2017-07-18,11:26:00,92.06,92.09,92.04,92.07,5128
EOG,2017-07-18,11:27:00,92.03,92.03,91.97,92.00,6650
EOG,2017-07-18,11:28:00,91.98,92.01,91.97,91.97,4071
EOG,2017-07-18,11:29:00,91.97,92.03,91.95,92.01,6950
EOG,2017-07-18,11:30:00,92.00,92.05,92.00,92.02,3072
EOG,2017-07-18,11:31:00,92.03,92.05,92.02,92.05,500
EOG,2017-07-18,11:32:00,92.03,92.05,92.02,92.02,1600
EOG,2017-07-18,11:33:00,91.98,92.01,91.98,91.99,8321
EOG,2017-07-18,11:34:00,92.00,92.00,91.97,92.00,6800
EOG,2017-07-18,11:35:00,91.99,92.00,91.97,91.98,2880
EOG,2017-07-18,11:36:00,91.99,92.00,91.93,91.93,18676
EOG,2017-07-18,11:37:00,91.93,91.96,91.90,91.91,4627
EOG,2017-07-18,11:38:00,91.89,91.89,91.79,91.79,3520
EOG,2017-07-18,11:39:00,91.80,91.80,91.76,91.77,6608
EOG,2017-07-18,11:40:00,91.78,91.78,91.64,91.71,16601
EOG,2017-07-18,11:41:00,91.71,91.75,91.71,91.75,1400
EOG,2017-07-18,11:42:00,91.74,91.85,91.74,91.83,2100
EOG,2017-07-18,11:43:00,91.84,91.92,91.83,91.90,5630
EOG,2017-07-18,11:44:00,91.94,91.97,91.92,91.94,4400
EOG,2017-07-18,11:45:00,91.96,91.98,91.94,91.95,7315
EOG,2017-07-18,11:46:00,91.96,92.02,91.94,91.94,3200
EOG,2017-07-18,11:47:00,91.95,91.95,91.94,91.95,520
EOG,2017-07-18,11:48:00,91.95,91.96,91.88,91.88,2000
EOG,2017-07-18,11:49:00,91.87,91.91,91.86,91.90,1700
EOG,2017-07-18,11:50:00,91.89,91.90,91.87,91.88,2987
EOG,2017-07-18,11:51:00,91.88,91.91,91.86,91.91,2856
EOG,2017-07-18,11:52:00,91.91,91.91,91.88,91.88,2172
EOG,2017-07-18,11:53:00,91.89,91.89,91.86,91.86,4072
EOG,2017-07-18,11:54:00,91.86,91.86,91.80,91.82,10676
EOG,2017-07-18,11:55:00,91.84,91.84,91.75,91.77,8000
EOG,2017-07-18,11:56:00,91.75,91.75,91.69,91.70,4240
EOG,2017-07-18,11:57:00,91.69,91.76,91.68,91.75,4972
EOG,2017-07-18,11:58:00,91.74,91.76,91.71,91.76,3900
EOG,2017-07-18,11:59:00,91.76,91.77,91.73,91.75,1100
EOG,2017-07-18,12:00:00,91.74,91.74,91.72,91.74,4800
EOG,2017-07-18,12:01:00,91.74,91.79,91.69,91.79,9274
EOG,2017-07-18,12:02:00,91.75,91.83,91.75,91.83,4907
EOG,2017-07-18,12:03:00,91.85,91.85,91.77,91.77,2664
EOG,2017-07-18,12:04:00,91.81,91.81,91.81,91.81,341
EOG,2017-07-18,12:05:00,91.81,91.81,91.81,91.81,100
EOG,2017-07-18,12:06:00,91.82,91.83,91.79,91.83,800
EOG,2017-07-18,12:07:00,91.85,91.85,91.82,91.82,951
EOG,2017-07-18,12:08:00,91.84,91.85,91.83,91.85,900
EOG,2017-07-18,12:09:00,91.83,91.83,91.82,91.82,300
EOG,2017-07-18,12:10:00,91.81,91.86,91.81,91.86,700
EOG,2017-07-18,12:11:00,91.84,91.85,91.82,91.82,4800
EOG,2017-07-18,12:12:00,91.85,91.85,91.83,91.83,2802
EOG,2017-07-18,12:13:00,91.83,91.84,91.82,91.83,1300
EOG,2017-07-18,12:14:00,91.83,91.83,91.79,91.81,13340
EOG,2017-07-18,12:15:00,91.82,91.83,91.80,91.82,1212
EOG,2017-07-18,12:16:00,91.82,91.85,91.81,91.85,1246
EOG,2017-07-18,12:17:00,91.87,91.89,91.85,91.86,800
EOG,2017-07-18,12:18:00,91.88,91.88,91.82,91.82,1000
EOG,2017-07-18,12:19:00,91.82,91.88,91.82,91.88,700
EOG,2017-07-18,12:20:00,91.84,91.89,91.84,91.86,600
EOG,2017-07-18,12:21:00,91.87,91.87,91.81,91.82,1000
EOG,2017-07-18,12:22:00,91.82,91.90,91.82,91.90,4221
EOG,2017-07-18,12:23:00,91.88,91.90,91.88,91.90,600
EOG,2017-07-18,12:24:00,91.92,91.93,91.92,91.93,545
EOG,2017-07-18,12:25:00,91.92,91.94,91.92,91.93,1700
EOG,2017-07-18,12:26:00,91.91,91.91,91.88,91.88,1903
EOG,2017-07-18,12:27:00,91.88,91.88,91.84,91.86,2000
EOG,2017-07-18,12:28:00,91.85,91.87,91.85,91.86,600
EOG,2017-07-18,12:29:00,91.86,91.86,91.85,91.85,1800
EOG,2017-07-18,12:30:00,91.85,91.86,91.79,91.79,1300
EOG,2017-07-18,12:31:00,91.78,91.85,91.78,91.85,1800
EOG,2017-07-18,12:32:00,91.84,91.85,91.82,91.82,1437
EOG,2017-07-18,12:33:00,91.82,91.83,91.82,91.82,1500
EOG,2017-07-18,12:34:00,91.83,91.83,91.80,91.80,700
EOG,2017-07-18,12:35:00,91.80,91.80,91.75,91.75,2150
EOG,2017-07-18,12:36:00,91.73,91.74,91.69,91.74,2300
EOG,2017-07-18,12:37:00,91.71,91.75,91.69,91.75,3400
EOG,2017-07-18,12:39:00,91.70,91.72,91.69,91.70,4769
EOG,2017-07-18,12:40:00,91.70,91.75,91.70,91.75,15542
EOG,2017-07-18,12:41:00,91.76,91.76,91.71,91.75,4650
EOG,2017-07-18,12:42:00,91.76,91.76,91.72,91.72,1900
EOG,2017-07-18,12:43:00,91.72,91.75,91.72,91.73,3700
EOG,2017-07-18,12:44:00,91.75,91.78,91.73,91.73,2100
EOG,2017-07-18,12:45:00,91.75,91.75,91.74,91.75,300
EOG,2017-07-18,12:46:00,91.73,91.74,91.73,91.73,600
EOG,2017-07-18,12:47:00,91.72,91.73,91.70,91.70,1200
EOG,2017-07-18,12:48:00,91.70,91.74,91.70,91.72,6950
EOG,2017-07-18,12:49:00,91.72,91.73,91.67,91.70,2901
EOG,2017-07-18,12:50:00,91.70,91.71,91.69,91.71,800
EOG,2017-07-18,12:51:00,91.69,91.70,91.69,91.70,750
EOG,2017-07-18,12:52:00,91.70,91.72,91.70,91.72,1200
EOG,2017-07-18,12:53:00,91.72,91.73,91.69,91.73,4850
EOG,2017-07-18,12:54:00,91.71,91.73,91.70,91.73,3400
EOG,2017-07-18,12:55:00,91.73,91.73,91.70,91.70,2100
EOG,2017-07-18,12:56:00,91.72,91.72,91.70,91.72,992
EOG,2017-07-18,12:57:00,91.70,91.73,91.70,91.70,6100
EOG,2017-07-18,12:58:00,91.71,91.73,91.70,91.72,2377
EOG,2017-07-18,12:59:00,91.73,91.73,91.73,91.73,100
EOG,2017-07-18,13:00:00,91.74,91.85,91.72,91.75,10032
EOG,2017-07-18,13:01:00,91.76,91.77,91.76,91.77,400
EOG,2017-07-18,13:02:00,91.74,91.74,91.73,91.73,200
EOG,2017-07-18,13:03:00,91.76,91.78,91.75,91.77,2600
EOG,2017-07-18,13:04:00,91.76,91.78,91.73,91.78,2500
EOG,2017-07-18,13:05:00,91.75,91.80,91.75,91.76,1300
EOG,2017-07-18,13:06:00,91.77,91.79,91.77,91.78,900
EOG,2017-07-18,13:07:00,91.77,91.78,91.77,91.78,1100
EOG,2017-07-18,13:08:00,91.76,91.78,91.75,91.78,1100
EOG,2017-07-18,13:09:00,91.72,91.75,91.71,91.75,2700
EOG,2017-07-18,13:10:00,91.71,91.72,91.70,91.71,1500
EOG,2017-07-18,13:11:00,91.70,91.71,91.67,91.71,3800
EOG,2017-07-18,13:12:00,91.71,91.72,91.70,91.71,2400
EOG,2017-07-18,13:13:00,91.74,91.74,91.71,91.72,1570
EOG,2017-07-18,13:14:00,91.70,91.73,91.70,91.71,5100
EOG,2017-07-18,13:15:00,91.69,91.70,91.66,91.67,4886
EOG,2017-07-18,13:16:00,91.67,91.67,91.63,91.67,6000
EOG,2017-07-18,13:17:00,91.65,91.66,91.61,91.65,6859
EOG,2017-07-18,13:18:00,91.64,91.64,91.63,91.63,500
EOG,2017-07-18,13:19:00,91.62,91.62,91.61,91.62,1300
EOG,2017-07-18,13:20:00,91.61,91.64,91.60,91.64,1200
EOG,2017-07-18,13:21:00,91.62,91.63,91.56,91.56,3600
EOG,2017-07-18,13:22:00,91.57,91.61,91.54,91.61,6950
EOG,2017-07-18,13:23:00,91.55,91.56,91.55,91.56,300
EOG,2017-07-18,13:24:00,91.55,91.55,91.53,91.55,1000
EOG,2017-07-18,13:25:00,91.55,91.55,91.53,91.55,6516
EOG,2017-07-18,13:26:00,91.54,91.54,91.52,91.53,3480
EOG,2017-07-18,13:27:00,91.53,91.55,91.51,91.53,6403
EOG,2017-07-18,13:28:00,91.52,91.52,91.51,91.52,1077
EOG,2017-07-18,13:29:00,91.52,91.53,91.52,91.53,800
EOG,2017-07-18,13:30:00,91.53,91.56,91.52,91.56,3657
EOG,2017-07-18,13:31:00,91.54,91.56,91.54,91.55,1200
EOG,2017-07-18,13:32:00,91.55,91.60,91.53,91.60,4260
EOG,2017-07-18,13:33:00,91.58,91.60,91.56,91.57,5750
EOG,2017-07-18,13:34:00,91.60,91.63,91.54,91.54,3600
EOG,2017-07-18,13:35:00,91.53,91.53,91.51,91.52,1200
EOG,2017-07-18,13:36:00,91.51,91.53,91.49,91.49,891
EOG,2017-07-18,13:37:00,91.47,91.47,91.43,91.44,1200
EOG,2017-07-18,13:38:00,91.44,91.45,91.43,91.43,800
EOG,2017-07-18,13:39:00,91.42,91.42,91.35,91.35,2023
EOG,2017-07-18,13:40:00,91.37,91.39,91.37,91.37,2000
EOG,2017-07-18,13:41:00,91.36,91.36,91.34,91.34,1101
EOG,2017-07-18,13:42:00,91.33,91.33,91.27,91.27,1900
EOG,2017-07-18,13:43:00,91.27,91.28,91.25,91.27,2500
EOG,2017-07-18,13:44:00,91.27,91.27,91.25,91.25,1601
EOG,2017-07-18,13:45:00,91.26,91.30,91.26,91.30,2700
EOG,2017-07-18,13:46:00,91.31,91.35,91.31,91.33,3300
EOG,2017-07-18,13:47:00,91.33,91.37,91.33,91.37,1715
EOG,2017-07-18,13:48:00,91.37,91.37,91.34,91.34,2423
EOG,2017-07-18,13:49:00,91.34,91.34,91.31,91.31,4200
EOG,2017-07-18,13:50:00,91.32,91.37,91.31,91.37,3500
EOG,2017-07-18,13:51:00,91.37,91.39,91.36,91.38,700
EOG,2017-07-18,13:52:00,91.36,91.36,91.35,91.35,700
EOG,2017-07-18,13:53:00,91.36,91.41,91.34,91.40,8901
EOG,2017-07-18,13:54:00,91.40,91.40,91.38,91.38,2960
EOG,2017-07-18,13:55:00,91.39,91.39,91.33,91.34,2000
EOG,2017-07-18,13:56:00,91.34,91.34,91.33,91.34,1200
EOG,2017-07-18,13:57:00,91.33,91.33,91.31,91.32,1800
EOG,2017-07-18,13:58:00,91.31,91.34,91.31,91.34,1500
EOG,2017-07-18,13:59:00,91.35,91.41,91.35,91.40,1913
EOG,2017-07-18,14:02:00,91.39,91.40,91.39,91.40,450
EOG,2017-07-18,14:03:00,91.38,91.45,91.38,91.45,7588
EOG,2017-07-18,14:04:00,91.44,91.48,91.43,91.47,3445
EOG,2017-07-18,14:05:00,91.47,91.50,91.46,91.50,8446
EOG,2017-07-18,14:06:00,91.51,91.51,91.46,91.48,3100
EOG,2017-07-18,14:07:00,91.48,91.48,91.47,91.47,1800
EOG,2017-07-18,14:08:00,91.50,91.51,91.49,91.49,1250
EOG,2017-07-18,14:09:00,91.48,91.48,91.47,91.48,974
EOG,2017-07-18,14:10:00,91.47,91.50,91.47,91.50,1500
EOG,2017-07-18,14:11:00,91.49,91.49,91.45,91.45,945
EOG,2017-07-18,14:12:00,91.45,91.50,91.43,91.48,1910
EOG,2017-07-18,14:13:00,91.47,91.52,91.47,91.52,3184
EOG,2017-07-18,14:14:00,91.50,91.55,91.50,91.53,900
EOG,2017-07-18,14:15:00,91.52,91.54,91.50,91.50,2152
EOG,2017-07-18,14:16:00,91.49,91.50,91.47,91.48,4884
EOG,2017-07-18,14:17:00,91.47,91.49,91.46,91.47,1078
EOG,2017-07-18,14:18:00,91.48,91.55,91.46,91.55,9378
EOG,2017-07-18,14:19:00,91.55,91.57,91.52,91.57,2500
EOG,2017-07-18,14:20:00,91.56,91.57,91.54,91.54,1607
EOG,2017-07-18,14:21:00,91.51,91.53,91.50,91.53,807
EOG,2017-07-18,14:22:00,91.54,91.55,91.53,91.53,1300
EOG,2017-07-18,14:23:00,91.55,91.58,91.54,91.57,2550
EOG,2017-07-18,14:24:00,91.58,91.58,91.58,91.58,100
EOG,2017-07-18,14:25:00,91.59,91.61,91.56,91.58,2222
EOG,2017-07-18,14:26:00,91.58,91.58,91.56,91.56,1338
EOG,2017-07-18,14:27:00,91.58,91.60,91.58,91.58,700
EOG,2017-07-18,14:28:00,91.58,91.58,91.57,91.57,1071
EOG,2017-07-18,14:29:00,91.58,91.61,91.58,91.60,1700
EOG,2017-07-18,14:30:00,91.59,91.65,91.59,91.64,7067
EOG,2017-07-18,14:31:00,91.64,91.65,91.64,91.65,200
EOG,2017-07-18,14:33:00,91.66,91.66,91.66,91.66,400
EOG,2017-07-18,14:34:00,91.66,91.72,91.66,91.72,5136
EOG,2017-07-18,14:35:00,91.73,91.78,91.72,91.73,3356
EOG,2017-07-18,14:36:00,91.72,91.72,91.68,91.68,1063
EOG,2017-07-18,14:37:00,91.68,91.68,91.66,91.66,909
EOG,2017-07-18,14:38:00,91.67,91.68,91.65,91.67,1000
EOG,2017-07-18,14:39:00,91.65,91.65,91.62,91.62,900
EOG,2017-07-18,14:40:00,91.62,91.62,91.61,91.61,700
EOG,2017-07-18,14:41:00,91.60,91.64,91.60,91.64,1200
EOG,2017-07-18,14:42:00,91.63,91.63,91.61,91.61,800
EOG,2017-07-18,14:43:00,91.60,91.64,91.60,91.64,1265
EOG,2017-07-18,14:44:00,91.63,91.65,91.61,91.61,1800
EOG,2017-07-18,14:45:00,91.62,91.62,91.61,91.61,200
EOG,2017-07-18,14:46:00,91.64,91.64,91.55,91.57,2687
EOG,2017-07-18,14:47:00,91.58,91.60,91.56,91.58,2144
EOG,2017-07-18,14:48:00,91.58,91.60,91.57,91.60,900
EOG,2017-07-18,14:49:00,91.58,91.60,91.57,91.57,1400
EOG,2017-07-18,14:50:00,91.57,91.57,91.56,91.57,800
EOG,2017-07-18,14:51:00,91.58,91.60,91.56,91.57,3000
EOG,2017-07-18,14:52:00,91.57,91.57,91.56,91.57,653
EOG,2017-07-18,14:53:00,91.57,91.59,91.57,91.59,300
EOG,2017-07-18,14:54:00,91.60,91.61,91.58,91.60,1800
EOG,2017-07-18,14:55:00,91.60,91.63,91.60,91.62,9900
EOG,2017-07-18,14:56:00,91.61,91.62,91.57,91.59,4727
EOG,2017-07-18,14:57:00,91.59,91.60,91.58,91.59,3500
EOG,2017-07-18,14:58:00,91.59,91.60,91.58,91.59,12278
EOG,2017-07-18,14:59:00,91.60,91.60,91.59,91.59,11143
EOG,2017-07-18,15:00:00,91.59,91.61,91.59,91.60,2650
EOG,2017-07-18,15:01:00,91.59,91.61,91.59,91.59,3451
EOG,2017-07-18,15:02:00,91.60,91.65,91.59,91.63,5894
EOG,2017-07-18,15:03:00,91.62,91.63,91.61,91.62,8299
EOG,2017-07-18,15:04:00,91.62,91.63,91.61,91.61,3275
EOG,2017-07-18,15:05:00,91.61,91.61,91.61,91.61,3280
EOG,2017-07-18,15:06:00,91.62,91.63,91.61,91.61,6317
EOG,2017-07-18,15:07:00,91.60,91.70,91.60,91.70,4737
EOG,2017-07-18,15:08:00,91.69,91.72,91.68,91.72,3000
EOG,2017-07-18,15:09:00,91.72,91.75,91.72,91.74,6846
EOG,2017-07-18,15:10:00,91.74,91.74,91.71,91.72,2000
EOG,2017-07-18,15:11:00,91.72,91.74,91.72,91.74,1900
EOG,2017-07-18,15:12:00,91.74,91.74,91.71,91.71,2807
EOG,2017-07-18,15:13:00,91.72,91.74,91.70,91.72,6150
EOG,2017-07-18,15:14:00,91.72,91.75,91.70,91.75,4300
EOG,2017-07-18,15:15:00,91.75,91.77,91.73,91.75,13800
EOG,2017-07-18,15:16:00,91.74,91.76,91.74,91.75,7912
EOG,2017-07-18,15:17:00,91.76,91.89,91.76,91.87,6600
EOG,2017-07-18,15:18:00,91.90,91.90,91.86,91.86,2780
EOG,2017-07-18,15:19:00,91.88,91.88,91.86,91.86,800
EOG,2017-07-18,15:20:00,91.87,91.87,91.82,91.83,1532
EOG,2017-07-18,15:21:00,91.84,91.85,91.80,91.80,2955
EOG,2017-07-18,15:22:00,91.80,91.81,91.78,91.81,1600
EOG,2017-07-18,15:23:00,91.80,91.81,91.77,91.78,1505
EOG,2017-07-18,15:24:00,91.78,91.79,91.77,91.79,4185
EOG,2017-07-18,15:25:00,91.79,91.83,91.79,91.83,3078
EOG,2017-07-18,15:26:00,91.84,91.84,91.75,91.75,26200
EOG,2017-07-18,15:27:00,91.74,91.77,91.74,91.77,11265
EOG,2017-07-18,15:28:00,91.77,91.78,91.76,91.76,2438
EOG,2017-07-18,15:29:00,91.75,91.76,91.74,91.76,1147
EOG,2017-07-18,15:30:00,91.75,91.78,91.75,91.76,1300
EOG,2017-07-18,15:31:00,91.74,91.80,91.74,91.77,4732
EOG,2017-07-18,15:32:00,91.76,91.78,91.76,91.77,4100
EOG,2017-07-18,15:33:00,91.77,91.78,91.76,91.77,2100
EOG,2017-07-18,15:34:00,91.77,91.80,91.77,91.79,93448
EOG,2017-07-18,15:35:00,91.80,91.80,91.77,91.79,6258
EOG,2017-07-18,15:36:00,91.79,91.84,91.79,91.81,3941
EOG,2017-07-18,15:37:00,91.80,91.81,91.78,91.80,2500
EOG,2017-07-18,15:38:00,91.80,91.80,91.78,91.80,6228
EOG,2017-07-18,15:39:00,91.80,91.80,91.77,91.78,2486
EOG,2017-07-18,15:40:00,91.79,91.80,91.75,91.78,14380
EOG,2017-07-18,15:41:00,91.78,91.79,91.72,91.74,9600
EOG,2017-07-18,15:42:00,91.73,91.75,91.72,91.72,6969
EOG,2017-07-18,15:43:00,91.74,91.74,91.68,91.73,9142
EOG,2017-07-18,15:44:00,91.73,91.74,91.72,91.73,5000
EOG,2017-07-18,15:45:00,91.72,91.75,91.70,91.74,13431
EOG,2017-07-18,15:46:00,91.72,91.75,91.72,91.75,7117
EOG,2017-07-18,15:47:00,91.74,91.75,91.72,91.74,9262
EOG,2017-07-18,15:48:00,91.74,91.75,91.71,91.75,22969
EOG,2017-07-18,15:49:00,91.74,91.75,91.73,91.74,3791
EOG,2017-07-18,15:50:00,91.73,91.74,91.72,91.73,4100
EOG,2017-07-18,15:51:00,91.73,91.73,91.69,91.69,3722
EOG,2017-07-18,15:52:00,91.70,91.70,91.69,91.69,6523
EOG,2017-07-18,15:53:00,91.69,91.70,91.68,91.68,7048
EOG,2017-07-18,15:54:00,91.68,91.69,91.68,91.69,3397
EOG,2017-07-18,15:55:00,91.69,91.70,91.68,91.69,7264
EOG,2017-07-18,15:56:00,91.69,91.69,91.67,91.68,10100
EOG,2017-07-18,15:57:00,91.69,91.74,91.68,91.73,7119
EOG,2017-07-18,15:58:00,91.74,91.75,91.74,91.75,7649
EOG,2017-07-18,15:59:00,91.75,91.75,91.71,91.72,14961
EOG,2017-07-18,16:00:00,91.72,91.75,91.70,91.71,33248
EOG,2017-07-19,09:30:00,91.56,91.56,91.56,91.56,16573
EOG,2017-07-19,09:32:00,91.74,92.00,91.74,91.96,1600
EOG,2017-07-19,09:33:00,92.00,92.12,91.94,91.99,6221
EOG,2017-07-19,09:34:00,92.05,92.18,92.05,92.16,2707
EOG,2017-07-19,09:35:00,92.08,92.17,92.02,92.13,4860
EOG,2017-07-19,09:36:00,92.08,92.12,92.00,92.12,5723
EOG,2017-07-19,09:37:00,92.11,92.24,92.11,92.24,2998
EOG,2017-07-19,09:38:00,92.17,92.22,92.12,92.20,4197
EOG,2017-07-19,09:39:00,92.20,92.25,92.10,92.24,7516
EOG,2017-07-19,09:40:00,92.25,92.28,92.18,92.23,2100
EOG,2017-07-19,09:41:00,92.18,92.29,92.13,92.28,5519
EOG,2017-07-19,09:42:00,92.26,92.41,92.26,92.40,8627
EOG,2017-07-19,09:43:00,92.40,92.54,92.40,92.53,15060
EOG,2017-07-19,09:44:00,92.55,92.62,92.50,92.58,7314
EOG,2017-07-19,09:45:00,92.54,92.72,92.54,92.69,8849
EOG,2017-07-19,09:46:00,92.64,92.72,92.62,92.67,14018
EOG,2017-07-19,09:47:00,92.73,92.74,92.62,92.65,12843
EOG,2017-07-19,09:48:00,92.67,92.69,92.62,92.68,9272
EOG,2017-07-19,09:49:00,92.68,92.68,92.58,92.61,12793
EOG,2017-07-19,09:50:00,92.62,92.64,92.58,92.60,4022
EOG,2017-07-19,09:51:00,92.59,92.59,92.53,92.53,3753
EOG,2017-07-19,09:52:00,92.51,92.51,92.40,92.41,29523
EOG,2017-07-19,09:53:00,92.42,92.45,92.42,92.43,2301
EOG,2017-07-19,09:54:00,92.40,92.52,92.40,92.52,1901
EOG,2017-07-19,09:55:00,92.52,92.57,92.51,92.51,4642
EOG,2017-07-19,09:56:00,92.52,92.62,92.50,92.58,6252
EOG,2017-07-19,09:57:00,92.62,92.64,92.56,92.64,4758
EOG,2017-07-19,09:58:00,92.65,92.69,92.65,92.69,1300
EOG,2017-07-19,09:59:00,92.68,92.73,92.63,92.73,5802
EOG,2017-07-19,10:00:00,92.73,92.74,92.65,92.65,8654
EOG,2017-07-19,10:01:00,92.65,92.72,92.61,92.70,25878
EOG,2017-07-19,10:02:00,92.67,92.71,92.59,92.62,44760
EOG,2017-07-19,10:03:00,92.60,92.71,92.59,92.61,27268
EOG,2017-07-19,10:04:00,92.58,92.58,92.54,92.57,4866
EOG,2017-07-19,10:05:00,92.56,92.59,92.52,92.57,4369
EOG,2017-07-19,10:06:00,92.57,92.72,92.57,92.72,3432
EOG,2017-07-19,10:07:00,92.71,92.72,92.64,92.69,11272
EOG,2017-07-19,10:08:00,92.67,92.69,92.59,92.65,17393
EOG,2017-07-19,10:09:00,92.61,92.70,92.59,92.70,8247
EOG,2017-07-19,10:10:00,92.69,92.71,92.67,92.69,6390
EOG,2017-07-19,10:11:00,92.69,92.74,92.68,92.72,8643
EOG,2017-07-19,10:12:00,92.73,92.73,92.68,92.72,7900
EOG,2017-07-19,10:13:00,92.73,92.81,92.72,92.78,5975
EOG,2017-07-19,10:14:00,92.77,92.78,92.75,92.75,9120
EOG,2017-07-19,10:15:00,92.73,92.76,92.72,92.76,1900
EOG,2017-07-19,10:16:00,92.75,92.82,92.69,92.70,3952
EOG,2017-07-19,10:17:00,92.70,92.70,92.69,92.70,11849
EOG,2017-07-19,10:18:00,92.71,92.73,92.70,92.71,3320
EOG,2017-07-19,10:19:00,92.73,92.75,92.67,92.70,11558
EOG,2017-07-19,10:20:00,92.70,92.75,92.70,92.75,4210
EOG,2017-07-19,10:21:00,92.75,92.83,92.75,92.77,1800
EOG,2017-07-19,10:22:00,92.77,92.82,92.75,92.80,5367
EOG,2017-07-19,10:23:00,92.80,92.83,92.78,92.81,4788
EOG,2017-07-19,10:24:00,92.83,92.91,92.83,92.87,3287
EOG,2017-07-19,10:25:00,92.85,92.92,92.85,92.90,4879
EOG,2017-07-19,10:26:00,92.91,93.03,92.91,92.96,9097
EOG,2017-07-19,10:27:00,92.96,92.96,92.90,92.95,5511
EOG,2017-07-19,10:28:00,92.95,92.96,92.90,92.93,3101
EOG,2017-07-19,10:29:00,92.91,92.93,92.88,92.93,5219
EOG,2017-07-19,10:30:00,92.93,93.37,92.90,93.33,21540
EOG,2017-07-19,10:31:00,93.33,93.41,93.13,93.28,28746
EOG,2017-07-19,10:32:00,93.29,93.29,93.11,93.20,13327
EOG,2017-07-19,10:33:00,93.21,93.33,93.19,93.33,9080
EOG,2017-07-19,10:34:00,93.30,93.37,93.24,93.28,8105
EOG,2017-07-19,10:35:00,93.27,93.30,93.22,93.22,11508
EOG,2017-07-19,10:36:00,93.26,93.34,93.25,93.34,4500
EOG,2017-07-19,10:37:00,93.29,93.36,93.24,93.30,8524
EOG,2017-07-19,10:38:00,93.23,93.27,93.19,93.23,13464
EOG,2017-07-19,10:39:00,93.19,93.19,92.97,93.00,8142
EOG,2017-07-19,10:40:00,93.00,93.00,92.86,92.99,32444
EOG,2017-07-19,10:41:00,93.01,93.06,92.87,93.03,13609
EOG,2017-07-19,10:42:00,92.99,93.11,92.98,93.06,3800
EOG,2017-07-19,10:43:00,93.08,93.11,93.03,93.06,4158
EOG,2017-07-19,10:44:00,93.05,93.17,93.05,93.16,5384
EOG,2017-07-19,10:45:00,93.15,93.15,93.09,93.14,3726
EOG,2017-07-19,10:46:00,93.16,93.24,93.14,93.24,3402
EOG,2017-07-19,10:47:00,93.29,93.30,93.24,93.28,2915
EOG,2017-07-19,10:48:00,93.29,93.29,93.19,93.23,3955
EOG,2017-07-19,10:49:00,93.22,93.23,93.19,93.23,3493
EOG,2017-07-19,10:50:00,93.20,93.25,93.13,93.13,10723
EOG,2017-07-19,10:51:00,93.14,93.21,93.11,93.21,3100
EOG,2017-07-19,10:52:00,93.19,93.24,93.17,93.19,2200
EOG,2017-07-19,10:53:00,93.19,93.23,93.15,93.23,3631
EOG,2017-07-19,10:54:00,93.22,93.24,93.14,93.14,2173
EOG,2017-07-19,10:55:00,93.14,93.17,93.05,93.11,4400
EOG,2017-07-19,10:56:00,93.10,93.12,93.03,93.09,4863
EOG,2017-07-19,10:57:00,93.09,93.17,93.07,93.17,2600
EOG,2017-07-19,10:58:00,93.16,93.21,93.14,93.14,3700
EOG,2017-07-19,10:59:00,93.19,93.22,93.17,93.18,1710
EOG,2017-07-19,11:00:00,93.19,93.22,93.15,93.22,3100
EOG,2017-07-19,11:01:00,93.22,93.22,93.16,93.18,3852
EOG,2017-07-19,11:02:00,93.18,93.26,93.17,93.22,4348
EOG,2017-07-19,11:03:00,93.20,93.22,93.17,93.22,3406
EOG,2017-07-19,11:04:00,93.22,93.32,93.22,93.30,5886
EOG,2017-07-19,11:05:00,93.32,93.33,93.27,93.31,4236
EOG,2017-07-19,11:06:00,93.34,93.35,93.30,93.31,3342
EOG,2017-07-19,11:07:00,93.32,93.32,93.28,93.28,1000
EOG,2017-07-19,11:08:00,93.28,93.35,93.28,93.35,2846
EOG,2017-07-19,11:09:00,93.37,93.41,93.35,93.41,14305
EOG,2017-07-19,11:10:00,93.41,93.51,93.41,93.45,46899
EOG,2017-07-19,11:11:00,93.44,93.55,93.44,93.49,12984
EOG,2017-07-19,11:12:00,93.50,93.57,93.50,93.56,7653
EOG,2017-07-19,11:13:00,93.57,93.62,93.56,93.62,4017
EOG,2017-07-19,11:14:00,93.63,93.63,93.59,93.60,17744
EOG,2017-07-19,11:15:00,93.59,93.59,93.53,93.57,5824
EOG,2017-07-19,11:16:00,93.58,93.59,93.54,93.54,3702
EOG,2017-07-19,11:17:00,93.53,93.58,93.52,93.56,2488
EOG,2017-07-19,11:18:00,93.55,93.62,93.55,93.57,8732
EOG,2017-07-19,11:19:00,93.59,93.61,93.57,93.61,3740
EOG,2017-07-19,11:20:00,93.60,93.60,93.57,93.57,9436
EOG,2017-07-19,11:21:00,93.57,93.57,93.54,93.54,10105
EOG,2017-07-19,11:22:00,93.57,93.62,93.55,93.62,3836
EOG,2017-07-19,11:23:00,93.61,93.62,93.55,93.55,2731
EOG,2017-07-19,11:24:00,93.56,93.56,93.53,93.53,1673
EOG,2017-07-19,11:25:00,93.53,93.57,93.51,93.57,1801
EOG,2017-07-19,11:26:00,93.59,93.59,93.56,93.59,2110
EOG,2017-07-19,11:27:00,93.58,93.58,93.54,93.55,2679
EOG,2017-07-19,11:28:00,93.53,93.56,93.50,93.53,9154
EOG,2017-07-19,11:29:00,93.53,93.54,93.49,93.54,4036
EOG,2017-07-19,11:30:00,93.54,93.54,93.51,93.52,2200
EOG,2017-07-19,11:31:00,93.53,93.54,93.51,93.53,1675
EOG,2017-07-19,11:32:00,93.51,93.56,93.50,93.56,8137
EOG,2017-07-19,11:33:00,93.55,93.56,93.51,93.53,13636
EOG,2017-07-19,11:34:00,93.51,93.59,93.51,93.56,3550
EOG,2017-07-19,11:35:00,93.55,93.58,93.55,93.58,4162
EOG,2017-07-19,11:36:00,93.57,93.58,93.54,93.57,11408
EOG,2017-07-19,11:37:00,93.57,93.60,93.53,93.60,12603
EOG,2017-07-19,11:38:00,93.59,93.67,93.56,93.67,24429
EOG,2017-07-19,11:39:00,93.67,93.67,93.64,93.65,2500
EOG,2017-07-19,11:40:00,93.64,93.73,93.63,93.70,17086
EOG,2017-07-19,11:41:00,93.71,93.75,93.71,93.74,2819
EOG,2017-07-19,11:42:00,93.74,93.76,93.72,93.74,1600
EOG,2017-07-19,11:43:00,93.73,93.75,93.73,93.75,4504
EOG,2017-07-19,11:44:00,93.75,93.84,93.74,93.84,4009
EOG,2017-07-19,11:45:00,93.88,93.90,93.80,93.80,1900
EOG,2017-07-19,11:46:00,93.81,93.83,93.80,93.80,4897
EOG,2017-07-19,11:47:00,93.81,93.82,93.80,93.82,3375
EOG,2017-07-19,11:48:00,93.81,93.84,93.81,93.83,4827
EOG,2017-07-19,11:49:00,93.83,93.88,93.83,93.85,14301
EOG,2017-07-19,11:50:00,93.85,93.97,93.85,93.94,17481
EOG,2017-07-19,11:51:00,93.95,94.03,93.95,94.00,29656
EOG,2017-07-19,11:52:00,94.00,94.03,94.00,94.03,17259
EOG,2017-07-19,11:53:00,94.03,94.06,93.99,94.00,21729
EOG,2017-07-19,11:54:00,94.00,94.02,93.99,94.01,7803
EOG,2017-07-19,11:55:00,94.01,94.01,93.97,93.97,2350
EOG,2017-07-19,11:56:00,93.98,93.98,93.95,93.95,4287
EOG,2017-07-19,11:57:00,93.94,93.95,93.88,93.90,1936
EOG,2017-07-19,11:58:00,93.90,93.90,93.88,93.89,7043
EOG,2017-07-19,11:59:00,93.89,94.02,93.89,93.97,9072
EOG,2017-07-19,12:00:00,93.97,93.97,93.94,93.97,1600
EOG,2017-07-19,12:01:00,93.98,94.04,93.98,93.99,5060
EOG,2017-07-19,12:02:00,93.99,94.07,93.98,94.05,4400
EOG,2017-07-19,12:03:00,94.05,94.05,94.01,94.01,3509
EOG,2017-07-19,12:04:00,94.01,94.03,94.01,94.03,1000
EOG,2017-07-19,12:05:00,94.01,94.02,94.01,94.02,500
EOG,2017-07-19,12:06:00,94.02,94.03,93.94,93.94,5000
EOG,2017-07-19,12:07:00,93.96,93.96,93.93,93.93,900
EOG,2017-07-19,12:08:00,93.92,93.94,93.89,93.90,10279
EOG,2017-07-19,12:09:00,93.90,93.91,93.89,93.90,4853
EOG,2017-07-19,12:10:00,93.90,93.91,93.85,93.85,7635
EOG,2017-07-19,12:11:00,93.85,93.88,93.84,93.84,2300
EOG,2017-07-19,12:12:00,93.85,93.87,93.84,93.87,3691
EOG,2017-07-19,12:13:00,93.88,93.89,93.85,93.89,4273
EOG,2017-07-19,12:14:00,93.88,94.00,93.88,94.00,4010
EOG,2017-07-19,12:15:00,94.00,94.13,94.00,94.11,12450
EOG,2017-07-19,12:16:00,94.11,94.11,94.02,94.05,11112
EOG,2017-07-19,12:17:00,94.06,94.08,94.05,94.06,3100
EOG,2017-07-19,12:18:00,94.07,94.07,94.03,94.03,3827
EOG,2017-07-19,12:19:00,94.04,94.16,94.04,94.14,4998
EOG,2017-07-19,12:20:00,94.15,94.19,94.13,94.18,4272
EOG,2017-07-19,12:21:00,94.18,94.23,94.13,94.14,7052
EOG,2017-07-19,12:22:00,94.15,94.18,94.14,94.18,1300
EOG,2017-07-19,12:23:00,94.15,94.15,94.03,94.11,8249
EOG,2017-07-19,12:24:00,94.15,94.15,94.12,94.13,1400
EOG,2017-07-19,12:25:00,94.13,94.13,94.12,94.12,1600
EOG,2017-07-19,12:26:00,94.14,94.19,94.13,94.17,3009
EOG,2017-07-19,12:27:00,94.17,94.21,94.13,94.21,2760
EOG,2017-07-19,12:28:00,94.19,94.19,94.13,94.14,6362
EOG,2017-07-19,12:29:00,94.13,94.17,94.13,94.13,1412
EOG,2017-07-19,12:30:00,94.14,94.14,94.08,94.08,3600
EOG,2017-07-19,12:31:00,94.07,94.12,94.05,94.07,7528
EOG,2017-07-19,12:32:00,94.07,94.07,94.05,94.05,3640
EOG,2017-07-19,12:33:00,94.04,94.08,94.04,94.08,3614
EOG,2017-07-19,12:34:00,94.07,94.14,94.07,94.10,6981
EOG,2017-07-19,12:35:00,94.08,94.08,94.03,94.08,3148
EOG,2017-07-19,12:36:00,94.08,94.13,94.08,94.12,4356
EOG,2017-07-19,12:37:00,94.12,94.16,94.11,94.16,2634
EOG,2017-07-19,12:38:00,94.16,94.17,94.14,94.15,4818
EOG,2017-07-19,12:39:00,94.17,94.21,94.15,94.21,1850
EOG,2017-07-19,12:40:00,94.19,94.28,94.19,94.28,11131
EOG,2017-07-19,12:41:00,94.27,94.28,94.26,94.28,2749
EOG,2017-07-19,12:42:00,94.29,94.31,94.29,94.29,1200
EOG,2017-07-19,12:43:00,94.28,94.28,94.26,94.27,5400
EOG,2017-07-19,12:44:00,94.27,94.32,94.27,94.32,7095
EOG,2017-07-19,12:45:00,94.30,94.39,94.30,94.38,12441
EOG,2017-07-19,12:46:00,94.38,94.39,94.35,94.39,3626
EOG,2017-07-19,12:47:00,94.38,94.39,94.37,94.39,2024
EOG,2017-07-19,12:48:00,94.38,94.46,94.38,94.43,7999
EOG,2017-07-19,12:49:00,94.44,94.46,94.42,94.42,2970
EOG,2017-07-19,12:50:00,94.43,94.44,94.39,94.39,3348
EOG,2017-07-19,12:51:00,94.41,94.42,94.38,94.40,5108
EOG,2017-07-19,12:52:00,94.40,94.41,94.37,94.41,3207
EOG,2017-07-19,12:53:00,94.41,94.45,94.38,94.45,4900
EOG,2017-07-19,12:54:00,94.45,94.48,94.40,94.40,6072
EOG,2017-07-19,12:55:00,94.37,94.39,94.30,94.35,3957
EOG,2017-07-19,12:56:00,94.36,94.40,94.31,94.31,5269
EOG,2017-07-19,12:57:00,94.32,94.36,94.32,94.35,1641
EOG,2017-07-19,12:58:00,94.34,94.36,94.30,94.30,3754
EOG,2017-07-19,12:59:00,94.31,94.31,94.23,94.23,9151
EOG,2017-07-19,13:00:00,94.25,94.25,94.24,94.24,1100
EOG,2017-07-19,13:01:00,94.24,94.26,94.20,94.21,3504
EOG,2017-07-19,13:02:00,94.22,94.24,94.19,94.20,3308
EOG,2017-07-19,13:03:00,94.18,94.20,94.14,94.17,7260
EOG,2017-07-19,13:04:00,94.17,94.17,94.15,94.17,6163
EOG,2017-07-19,13:05:00,94.19,94.23,94.19,94.22,2558
EOG,2017-07-19,13:06:00,94.23,94.25,94.20,94.23,4367
EOG,2017-07-19,13:07:00,94.25,94.27,94.23,94.24,4650
EOG,2017-07-19,13:08:00,94.23,94.23,94.15,94.21,3969
EOG,2017-07-19,13:09:00,94.20,94.21,94.17,94.20,10173
EOG,2017-07-19,13:10:00,94.20,94.22,94.19,94.20,5339
EOG,2017-07-19,13:11:00,94.20,94.22,94.18,94.21,8115
EOG,2017-07-19,13:12:00,94.18,94.29,94.17,94.29,4800
EOG,2017-07-19,13:13:00,94.29,94.31,94.23,94.23,4636
EOG,2017-07-19,13:14:00,94.23,94.27,94.23,94.26,2300
EOG,2017-07-19,13:15:00,94.26,94.26,94.21,94.22,5639
EOG,2017-07-19,13:16:00,94.21,94.23,94.19,94.21,5991
EOG,2017-07-19,13:17:00,94.20,94.22,94.17,94.22,5019
EOG,2017-07-19,13:18:00,94.24,94.24,94.19,94.19,2420
EOG,2017-07-19,13:19:00,94.20,94.27,94.19,94.26,6910
EOG,2017-07-19,13:20:00,94.26,94.27,94.19,94.19,2600
EOG,2017-07-19,13:21:00,94.20,94.21,94.19,94.20,1890
EOG,2017-07-19,13:22:00,94.20,94.22,94.20,94.20,2165
EOG,2017-07-19,13:23:00,94.20,94.24,94.20,94.24,1800
EOG,2017-07-19,13:24:00,94.21,94.22,94.20,94.20,2701
EOG,2017-07-19,13:25:00,94.21,94.22,94.19,94.20,8462
EOG,2017-07-19,13:26:00,94.19,94.22,94.19,94.20,4603
EOG,2017-07-19,13:27:00,94.22,94.28,94.21,94.25,4660
EOG,2017-07-19,13:28:00,94.24,94.25,94.18,94.25,6751
EOG,2017-07-19,13:29:00,94.25,94.25,94.22,94.25,5886
EOG,2017-07-19,13:30:00,94.25,94.29,94.24,94.29,4400
EOG,2017-07-19,13:31:00,94.29,94.31,94.28,94.28,5300
EOG,2017-07-19,13:32:00,94.28,94.28,94.26,94.27,1800
EOG,2017-07-19,13:33:00,94.28,94.36,94.27,94.35,3000
EOG,2017-07-19,13:34:00,94.33,94.33,94.27,94.30,2620
EOG,2017-07-19,13:35:00,94.29,94.31,94.29,94.29,2000
EOG,2017-07-19,13:36:00,94.31,94.32,94.21,94.21,7658
EOG,2017-07-19,13:37:00,94.21,94.23,94.20,94.22,6276
EOG,2017-07-19,13:38:00,94.22,94.22,94.20,94.21,5547
EOG,2017-07-19,13:39:00,94.21,94.24,94.21,94.21,3500
EOG,2017-07-19,13:40:00,94.21,94.27,94.20,94.27,3713
EOG,2017-07-19,13:41:00,94.24,94.24,94.21,94.21,2061
EOG,2017-07-19,13:42:00,94.21,94.25,94.21,94.24,2701
EOG,2017-07-19,13:43:00,94.28,94.28,94.20,94.22,5592
EOG,2017-07-19,13:44:00,94.24,94.31,94.23,94.23,3600
EOG,2017-07-19,13:45:00,94.22,94.23,94.22,94.23,2300
EOG,2017-07-19,13:46:00,94.22,94.25,94.22,94.24,1600
EOG,2017-07-19,13:47:00,94.24,94.25,94.24,94.25,3104
EOG,2017-07-19,13:48:00,94.25,94.26,94.22,94.24,12341
EOG,2017-07-19,13:49:00,94.24,94.25,94.24,94.24,3101
EOG,2017-07-19,13:50:00,94.24,94.27,94.23,94.25,3613
EOG,2017-07-19,13:51:00,94.26,94.27,94.24,94.24,2300
EOG,2017-07-19,13:52:00,94.27,94.30,94.24,94.27,2911
EOG,2017-07-19,13:53:00,94.29,94.29,94.24,94.24,2059
EOG,2017-07-19,13:54:00,94.24,94.28,94.24,94.24,29965
EOG,2017-07-19,13:55:00,94.24,94.27,94.23,94.27,5300
EOG,2017-07-19,13:56:00,94.27,94.30,94.27,94.29,2226
EOG,2017-07-19,13:57:00,94.29,94.35,94.29,94.34,2550
EOG,2017-07-19,13:58:00,94.33,94.34,94.30,94.34,2800
EOG,2017-07-19,13:59:00,94.34,94.37,94.33,94.37,13259
EOG,2017-07-19,14:00:00,94.34,94.36,94.33,94.36,4224
EOG,2017-07-19,14:01:00,94.36,94.37,94.34,94.34,2534
EOG,2017-07-19,14:02:00,94.37,94.38,94.35,94.38,2050
EOG,2017-07-19,14:03:00,94.38,94.45,94.37,94.41,6101
EOG,2017-07-19,14:04:00,94.41,94.47,94.40,94.47,7342
EOG,2017-07-19,14:05:00,94.48,94.51,94.48,94.50,15091
EOG,2017-07-19,14:06:00,94.50,94.51,94.45,94.49,12876
EOG,2017-07-19,14:07:00,94.48,94.52,94.48,94.51,5422
EOG,2017-07-19,14:08:00,94.49,94.49,94.48,94.48,5800
EOG,2017-07-19,14:09:00,94.49,94.49,94.40,94.40,9488
EOG,2017-07-19,14:10:00,94.40,94.41,94.36,94.36,10555
EOG,2017-07-19,14:11:00,94.34,94.34,94.25,94.25,5050
EOG,2017-07-19,14:12:00,94.25,94.28,94.25,94.27,3608
EOG,2017-07-19,14:13:00,94.27,94.29,94.25,94.29,3962
EOG,2017-07-19,14:14:00,94.26,94.27,94.23,94.24,8900
EOG,2017-07-19,14:15:00,94.24,94.28,94.20,94.28,7005
EOG,2017-07-19,14:16:00,94.25,94.28,94.21,94.21,4299
EOG,2017-07-19,14:17:00,94.21,94.25,94.21,94.24,1800
EOG,2017-07-19,14:18:00,94.24,94.24,94.21,94.23,2301
EOG,2017-07-19,14:19:00,94.21,94.24,94.20,94.24,6047
EOG,2017-07-19,14:20:00,94.23,94.23,94.20,94.20,8611
EOG,2017-07-19,14:21:00,94.20,94.21,94.09,94.09,12674
EOG,2017-07-19,14:22:00,94.08,94.16,94.06,94.14,11046
EOG,2017-07-19,14:23:00,94.14,94.14,94.05,94.06,5013
EOG,2017-07-19,14:24:00,94.06,94.08,94.04,94.07,2209
EOG,2017-07-19,14:25:00,94.07,94.08,94.07,94.07,1708
EOG,2017-07-19,14:26:00,94.08,94.09,94.04,94.05,4048
EOG,2017-07-19,14:27:00,94.07,94.16,94.07,94.15,3700
EOG,2017-07-19,14:28:00,94.14,94.19,94.14,94.16,16393
EOG,2017-07-19,14:29:00,94.14,94.20,94.12,94.14,13097
EOG,2017-07-19,14:30:00,94.14,94.16,94.10,94.11,54513
EOG,2017-07-19,14:31:00,94.11,94.18,94.11,94.15,4500
EOG,2017-07-19,14:32:00,94.18,94.19,94.14,94.19,3970
EOG,2017-07-19,14:33:00,94.17,94.22,94.17,94.21,5314
EOG,2017-07-19,14:34:00,94.21,94.32,94.20,94.32,18273
EOG,2017-07-19,14:35:00,94.33,94.33,94.23,94.24,6201
EOG,2017-07-19,14:36:00,94.21,94.29,94.21,94.29,4267
EOG,2017-07-19,14:37:00,94.30,94.41,94.30,94.40,4827
EOG,2017-07-19,14:38:00,94.41,94.50,94.40,94.50,17750
EOG,2017-07-19,14:39:00,94.51,94.51,94.40,94.51,13314
EOG,2017-07-19,14:40:00,94.52,94.55,94.43,94.44,6850
EOG,2017-07-19,14:41:00,94.42,94.49,94.40,94.42,2671
EOG,2017-07-19,14:42:00,94.40,94.46,94.40,94.46,2642
EOG,2017-07-19,14:43:00,94.44,94.44,94.39,94.42,2747
EOG,2017-07-19,14:44:00,94.41,94.41,94.33,94.33,15872
EOG,2017-07-19,14:45:00,94.32,94.32,94.28,94.29,7034
EOG,2017-07-19,14:46:00,94.29,94.36,94.28,94.33,4200
EOG,2017-07-19,14:47:00,94.33,94.37,94.32,94.35,11028
EOG,2017-07-19,14:48:00,94.36,94.36,94.33,94.33,4634
EOG,2017-07-19,14:49:00,94.32,94.38,94.32,94.38,3281
EOG,2017-07-19,14:50:00,94.38,94.39,94.36,94.37,9875
EOG,2017-07-19,14:51:00,94.38,94.38,94.33,94.35,30643
EOG,2017-07-19,14:52:00,94.36,94.42,94.32,94.42,12257
EOG,2017-07-19,14:53:00,94.43,94.43,94.40,94.41,4007
EOG,2017-07-19,14:54:00,94.41,94.47,94.41,94.45,6601
EOG,2017-07-19,14:55:00,94.45,94.49,94.44,94.49,5831
EOG,2017-07-19,14:56:00,94.49,94.49,94.44,94.44,6700
EOG,2017-07-19,14:57:00,94.45,94.49,94.45,94.48,5045
EOG,2017-07-19,14:58:00,94.50,94.51,94.49,94.50,4890
EOG,2017-07-19,14:59:00,94.50,94.51,94.49,94.49,8105
EOG,2017-07-19,15:00:00,94.49,94.50,94.48,94.49,6401
EOG,2017-07-19,15:01:00,94.49,94.49,94.46,94.46,8559
EOG,2017-07-19,15:02:00,94.45,94.45,94.39,94.42,4158
EOG,2017-07-19,15:03:00,94.42,94.44,94.40,94.40,4538
EOG,2017-07-19,15:04:00,94.41,94.41,94.34,94.39,7701
EOG,2017-07-19,15:05:00,94.38,94.42,94.36,94.42,11406
EOG,2017-07-19,15:06:00,94.42,94.42,94.35,94.38,4210
EOG,2017-07-19,15:07:00,94.38,94.38,94.35,94.35,1878
EOG,2017-07-19,15:08:00,94.36,94.37,94.36,94.37,4201
EOG,2017-07-19,15:09:00,94.37,94.39,94.36,94.39,9497
EOG,2017-07-19,15:10:00,94.38,94.41,94.38,94.41,5122
EOG,2017-07-19,15:11:00,94.42,94.42,94.37,94.40,6524
EOG,2017-07-19,15:12:00,94.39,94.39,94.37,94.38,4528
EOG,2017-07-19,15:13:00,94.38,94.38,94.35,94.37,6700
EOG,2017-07-19,15:14:00,94.37,94.38,94.36,94.38,7532
EOG,2017-07-19,15:15:00,94.39,94.44,94.39,94.41,8023
EOG,2017-07-19,15:16:00,94.41,94.44,94.40,94.42,17801
EOG,2017-07-19,15:17:00,94.42,94.50,94.42,94.45,13732
EOG,2017-07-19,15:18:00,94.45,94.46,94.42,94.42,12998
EOG,2017-07-19,15:19:00,94.43,94.46,94.42,94.44,8038
EOG,2017-07-19,15:20:00,94.45,94.46,94.40,94.45,15063
EOG,2017-07-19,15:21:00,94.44,94.47,94.42,94.44,40456
EOG,2017-07-19,15:22:00,94.45,94.47,94.44,94.47,28346
EOG,2017-07-19,15:23:00,94.45,94.46,94.38,94.39,11345
EOG,2017-07-19,15:24:00,94.39,94.39,94.33,94.37,9802
EOG,2017-07-19,15:25:00,94.35,94.39,94.34,94.37,12362
EOG,2017-07-19,15:26:00,94.36,94.38,94.35,94.36,6410
EOG,2017-07-19,15:27:00,94.35,94.39,94.34,94.38,9628
EOG,2017-07-19,15:28:00,94.37,94.37,94.34,94.35,5114
EOG,2017-07-19,15:29:00,94.36,94.46,94.35,94.41,14152
EOG,2017-07-19,15:30:00,94.41,94.41,94.34,94.37,6849
EOG,2017-07-19,15:31:00,94.35,94.39,94.35,94.36,7186
EOG,2017-07-19,15:32:00,94.37,94.43,94.36,94.40,13435
EOG,2017-07-19,15:33:00,94.40,94.41,94.40,94.41,5805
EOG,2017-07-19,15:34:00,94.41,94.47,94.41,94.45,15598
EOG,2017-07-19,15:35:00,94.45,94.46,94.42,94.45,16540
EOG,2017-07-19,15:36:00,94.45,94.47,94.42,94.43,18817
EOG,2017-07-19,15:37:00,94.42,94.42,94.34,94.34,5240
EOG,2017-07-19,15:38:00,94.32,94.34,94.31,94.31,9831
EOG,2017-07-19,15:39:00,94.31,94.32,94.30,94.31,10386
EOG,2017-07-19,15:40:00,94.31,94.32,94.30,94.32,9675
EOG,2017-07-19,15:41:00,94.31,94.34,94.31,94.33,12064
EOG,2017-07-19,15:42:00,94.33,94.39,94.33,94.34,17467
EOG,2017-07-19,15:43:00,94.35,94.36,94.32,94.34,19149
EOG,2017-07-19,15:44:00,94.33,94.34,94.30,94.31,19988
EOG,2017-07-19,15:45:00,94.31,94.32,94.25,94.27,12150
EOG,2017-07-19,15:46:00,94.28,94.34,94.28,94.31,18423
EOG,2017-07-19,15:47:00,94.32,94.36,94.31,94.35,9466
EOG,2017-07-19,15:48:00,94.36,94.38,94.34,94.34,23293
EOG,2017-07-19,15:49:00,94.35,94.35,94.30,94.34,53629
EOG,2017-07-19,15:50:00,94.33,94.38,94.30,94.38,25744
EOG,2017-07-19,15:51:00,94.37,94.39,94.32,94.32,23224
EOG,2017-07-19,15:52:00,94.31,94.32,94.29,94.30,25278
EOG,2017-07-19,15:53:00,94.30,94.32,94.29,94.31,19557
EOG,2017-07-19,15:54:00,94.30,94.32,94.26,94.28,20143
EOG,2017-07-19,15:55:00,94.28,94.28,94.24,94.25,23373
EOG,2017-07-19,15:56:00,94.25,94.26,94.25,94.26,13903
EOG,2017-07-19,15:57:00,94.25,94.29,94.25,94.29,29555
EOG,2017-07-19,15:58:00,94.29,94.30,94.28,94.28,36149
EOG,2017-07-19,15:59:00,94.28,94.29,94.23,94.25,67530
EOG,2017-07-19,16:00:00,94.25,94.32,94.24,94.30,76700
EOG,2017-07-20,09:30:00,95.00,95.00,94.75,94.75,39244
EOG,2017-07-20,09:31:00,94.66,95.24,94.66,95.23,38472
EOG,2017-07-20,09:32:00,95.23,95.23,94.91,95.08,5752
EOG,2017-07-20,09:33:00,95.08,95.14,94.95,95.05,15810
EOG,2017-07-20,09:34:00,95.05,95.11,94.96,95.06,10490
EOG,2017-07-20,09:35:00,95.03,95.09,94.94,95.05,7200
EOG,2017-07-20,09:36:00,94.98,95.01,94.82,94.85,12606
EOG,2017-07-20,09:37:00,94.83,95.00,94.83,94.92,14703
EOG,2017-07-20,09:38:00,94.92,95.01,94.84,94.95,17153
EOG,2017-07-20,09:39:00,94.92,95.13,94.91,95.08,9659
EOG,2017-07-20,09:40:00,95.12,95.17,94.96,95.08,17104
EOG,2017-07-20,09:41:00,95.09,95.20,95.05,95.19,7819
EOG,2017-07-20,09:42:00,95.21,95.21,95.08,95.13,5379
EOG,2017-07-20,09:43:00,95.14,95.14,94.99,95.03,8723
EOG,2017-07-20,09:44:00,94.99,95.05,94.97,95.05,3168
EOG,2017-07-20,09:45:00,95.02,95.09,95.02,95.04,3500
EOG,2017-07-20,09:46:00,95.06,95.10,94.98,95.00,13176
EOG,2017-07-20,09:47:00,95.01,95.04,94.97,95.03,22120
EOG,2017-07-20,09:48:00,95.03,95.10,94.98,95.10,9902
EOG,2017-07-20,09:49:00,95.09,95.11,95.02,95.06,9000
EOG,2017-07-20,09:50:00,95.04,95.10,95.02,95.10,14051
EOG,2017-07-20,09:51:00,95.10,95.19,95.07,95.18,4324
EOG,2017-07-20,09:52:00,95.13,95.25,95.13,95.23,10659
EOG,2017-07-20,09:53:00,95.22,95.36,95.19,95.36,17200
EOG,2017-07-20,09:54:00,95.37,95.51,95.33,95.50,25949
EOG,2017-07-20,09:55:00,95.51,95.65,95.51,95.60,18899
EOG,2017-07-20,09:56:00,95.63,95.74,95.62,95.72,24267
EOG,2017-07-20,09:57:00,95.72,95.74,95.52,95.54,10984
EOG,2017-07-20,09:58:00,95.55,95.58,95.47,95.52,9036
EOG,2017-07-20,09:59:00,95.51,95.59,95.48,95.52,10242
EOG,2017-07-20,10:00:00,95.49,95.50,95.43,95.49,11586
EOG,2017-07-20,10:01:00,95.47,95.52,95.40,95.41,15650
EOG,2017-07-20,10:02:00,95.41,95.53,95.40,95.53,10495
EOG,2017-07-20,10:03:00,95.53,95.53,95.45,95.49,25022
EOG,2017-07-20,10:04:00,95.46,95.48,95.37,95.44,20855
EOG,2017-07-20,10:05:00,95.46,95.52,95.43,95.50,9032
EOG,2017-07-20,10:06:00,95.52,95.52,95.40,95.47,17124
EOG,2017-07-20,10:07:00,95.47,95.53,95.40,95.45,9147
EOG,2017-07-20,10:08:00,95.45,95.56,95.45,95.56,6658
EOG,2017-07-20,10:09:00,95.56,95.56,95.49,95.56,8618
EOG,2017-07-20,10:10:00,95.54,95.57,95.50,95.52,20636
EOG,2017-07-20,10:11:00,95.52,95.58,95.47,95.51,50366
EOG,2017-07-20,10:12:00,95.50,95.51,95.42,95.50,36096
EOG,2017-07-20,10:13:00,95.50,95.61,95.50,95.58,30252
EOG,2017-07-20,10:14:00,95.59,95.71,95.58,95.67,14370
EOG,2017-07-20,10:15:00,95.69,95.72,95.56,95.59,10679
EOG,2017-07-20,10:16:00,95.59,95.59,95.48,95.48,8833
EOG,2017-07-20,10:17:00,95.48,95.52,95.43,95.49,24402
EOG,2017-07-20,10:18:00,95.49,95.53,95.44,95.52,19433
EOG,2017-07-20,10:19:00,95.52,95.53,95.32,95.38,39170
EOG,2017-07-20,10:20:00,95.38,95.38,95.31,95.33,2468
EOG,2017-07-20,10:21:00,95.32,95.35,95.18,95.19,18568
EOG,2017-07-20,10:22:00,95.20,95.20,95.15,95.16,2200
EOG,2017-07-20,10:23:00,95.16,95.18,95.14,95.15,5382
EOG,2017-07-20,10:24:00,95.13,95.27,95.13,95.23,4317
EOG,2017-07-20,10:25:00,95.23,95.34,95.17,95.32,29595
EOG,2017-07-20,10:26:00,95.32,95.38,95.22,95.22,34642
EOG,2017-07-20,10:27:00,95.24,95.32,95.18,95.29,5989
EOG,2017-07-20,10:28:00,95.28,95.37,95.28,95.36,2330
EOG,2017-07-20,10:29:00,95.33,95.33,95.27,95.33,3869
EOG,2017-07-20,10:30:00,95.34,95.43,95.33,95.43,5400
EOG,2017-07-20,10:31:00,95.42,95.50,95.42,95.43,3922
EOG,2017-07-20,10:32:00,95.36,95.45,95.30,95.41,7865
EOG,2017-07-20,10:33:00,95.39,95.44,95.32,95.43,15000
EOG,2017-07-20,10:34:00,95.42,95.42,95.34,95.36,8972
EOG,2017-07-20,10:35:00,95.34,95.40,95.30,95.40,4900
EOG,2017-07-20,10:36:00,95.38,95.41,95.29,95.31,7440
EOG,2017-07-20,10:37:00,95.32,95.39,95.32,95.39,23300
EOG,2017-07-20,10:38:00,95.40,95.41,95.29,95.32,10161
EOG,2017-07-20,10:39:00,95.31,95.34,95.12,95.14,41997
EOG,2017-07-20,10:40:00,95.15,95.21,95.08,95.17,51654
EOG,2017-07-20,10:41:00,95.17,95.17,94.85,94.87,31445
EOG,2017-07-20,10:42:00,94.88,94.92,94.84,94.86,39284
EOG,2017-07-20,10:43:00,94.83,94.87,94.81,94.84,17318
EOG,2017-07-20,10:44:00,94.83,94.92,94.81,94.91,25667
EOG,2017-07-20,10:45:00,94.91,95.00,94.88,94.99,9807
EOG,2017-07-20,10:46:00,94.99,95.06,94.98,95.06,13922
EOG,2017-07-20,10:47:00,95.09,95.23,95.09,95.21,18910
EOG,2017-07-20,10:48:00,95.23,95.27,95.18,95.25,2710
EOG,2017-07-20,10:49:00,95.19,95.20,95.13,95.13,6831
EOG,2017-07-20,10:50:00,95.10,95.20,95.10,95.12,3606
EOG,2017-07-20,10:51:00,95.11,95.14,95.01,95.04,6024
EOG,2017-07-20,10:52:00,95.07,95.09,94.97,94.98,23087
EOG,2017-07-20,10:53:00,94.96,95.05,94.94,95.04,13700
EOG,2017-07-20,10:54:00,95.07,95.14,95.07,95.14,2965
EOG,2017-07-20,10:55:00,95.14,95.18,95.14,95.18,1455
EOG,2017-07-20,10:56:00,95.14,95.18,95.13,95.13,4393
EOG,2017-07-20,10:57:00,95.15,95.22,95.12,95.12,10461
EOG,2017-07-20,10:58:00,95.09,95.10,94.98,95.10,14175
EOG,2017-07-20,10:59:00,95.14,95.14,95.05,95.07,1000
EOG,2017-07-20,11:00:00,95.03,95.13,95.01,95.13,3711
EOG,2017-07-20,11:01:00,95.13,95.13,95.02,95.03,3525
EOG,2017-07-20,11:02:00,95.02,95.02,94.95,94.97,6727
EOG,2017-07-20,11:03:00,94.98,95.03,94.98,95.02,5300
EOG,2017-07-20,11:04:00,95.03,95.05,95.01,95.01,3146
EOG,2017-07-20,11:05:00,95.03,95.03,94.99,95.00,9410
EOG,2017-07-20,11:06:00,95.00,95.04,94.85,94.93,21093
EOG,2017-07-20,11:07:00,94.90,94.90,94.78,94.80,22526
EOG,2017-07-20,11:08:00,94.80,94.85,94.79,94.81,11358
EOG,2017-07-20,11:09:00,94.80,94.86,94.80,94.84,21299
EOG,2017-07-20,11:10:00,94.85,94.86,94.76,94.77,21900
EOG,2017-07-20,11:11:00,94.74,94.81,94.74,94.76,31960
EOG,2017-07-20,11:12:00,94.76,94.89,94.75,94.88,25783
EOG,2017-07-20,11:13:00,94.88,94.90,94.68,94.69,18321
EOG,2017-07-20,11:14:00,94.70,94.70,94.49,94.62,28088
EOG,2017-07-20,11:15:00,94.63,94.68,94.59,94.61,7780
EOG,2017-07-20,11:16:00,94.58,94.61,94.47,94.47,24523
EOG,2017-07-20,11:17:00,94.43,94.56,94.42,94.53,9100
EOG,2017-07-20,11:18:00,94.56,94.62,94.56,94.57,1750
EOG,2017-07-20,11:19:00,94.57,94.70,94.54,94.70,4315
EOG,2017-07-20,11:20:00,94.70,94.70,94.64,94.65,3725
EOG,2017-07-20,11:21:00,94.66,94.71,94.66,94.69,1100
EOG,2017-07-20,11:22:00,94.68,94.68,94.61,94.66,2800
EOG,2017-07-20,11:23:00,94.65,94.80,94.65,94.80,16505
EOG,2017-07-20,11:24:00,94.80,94.80,94.77,94.78,3132
EOG,2017-07-20,11:25:00,94.78,94.87,94.78,94.85,24008
EOG,2017-07-20,11:26:00,94.83,94.91,94.82,94.83,8279
EOG,2017-07-20,11:27:00,94.81,94.86,94.78,94.81,13308
EOG,2017-07-20,11:28:00,94.81,94.84,94.79,94.81,3565
EOG,2017-07-20,11:29:00,94.79,94.83,94.76,94.80,4254
EOG,2017-07-20,11:30:00,94.76,94.82,94.74,94.81,7194
EOG,2017-07-20,11:31:00,94.82,94.93,94.80,94.92,15068
EOG,2017-07-20,11:32:00,94.92,94.95,94.80,94.83,8700
EOG,2017-07-20,11:33:00,94.83,94.89,94.82,94.85,4100
EOG,2017-07-20,11:34:00,94.85,94.90,94.84,94.87,11972
EOG,2017-07-20,11:35:00,94.87,94.87,94.80,94.86,14100
EOG,2017-07-20,11:36:00,94.84,94.84,94.67,94.69,12038
EOG,2017-07-20,11:37:00,94.68,94.70,94.46,94.49,35187
EOG,2017-07-20,11:38:00,94.48,94.49,94.30,94.31,6056
EOG,2017-07-20,11:39:00,94.33,94.40,94.33,94.34,30695
EOG,2017-07-20,11:40:00,94.34,94.44,94.32,94.32,11865
EOG,2017-07-20,11:41:00,94.30,94.41,94.30,94.30,6077
EOG,2017-07-20,11:42:00,94.30,94.31,94.24,94.29,32474
EOG,2017-07-20,11:43:00,94.27,94.31,94.24,94.30,43813
EOG,2017-07-20,11:44:00,94.28,94.32,94.28,94.31,15500
EOG,2017-07-20,11:45:00,94.31,94.44,94.31,94.41,8100
EOG,2017-07-20,11:46:00,94.44,94.50,94.42,94.50,19013
EOG,2017-07-20,11:47:00,94.52,94.62,94.46,94.49,14726
EOG,2017-07-20,11:48:00,94.46,94.46,94.30,94.32,43602
EOG,2017-07-20,11:49:00,94.32,94.39,94.31,94.39,12100
EOG,2017-07-20,11:50:00,94.39,94.40,94.30,94.38,4200
EOG,2017-07-20,11:51:00,94.38,94.47,94.38,94.39,6900
EOG,2017-07-20,11:52:00,94.41,94.47,94.40,94.40,11400
EOG,2017-07-20,11:53:00,94.38,94.42,94.35,94.42,4379
EOG,2017-07-20,11:54:00,94.41,94.44,94.37,94.44,5086
EOG,2017-07-20,11:55:00,94.42,94.47,94.40,94.40,3400
EOG,2017-07-20,11:56:00,94.41,94.45,94.39,94.41,4907
EOG,2017-07-20,11:57:00,94.40,94.40,94.29,94.31,3757
EOG,2017-07-20,11:58:00,94.30,94.33,94.30,94.33,4102
EOG,2017-07-20,11:59:00,94.35,94.41,94.35,94.41,1617
EOG,2017-07-20,12:00:00,94.39,94.44,94.38,94.44,2430
EOG,2017-07-20,12:01:00,94.44,94.44,94.36,94.36,4075
EOG,2017-07-20,12:02:00,94.36,94.40,94.36,94.39,4253
EOG,2017-07-20,12:03:00,94.38,94.45,94.38,94.45,1300
EOG,2017-07-20,12:04:00,94.48,94.53,94.45,94.50,7621
EOG,2017-07-20,12:05:00,94.50,94.53,94.49,94.53,6058
EOG,2017-07-20,12:06:00,94.54,94.62,94.52,94.61,1860
EOG,2017-07-20,12:07:00,94.57,94.57,94.45,94.45,2301
EOG,2017-07-20,12:08:00,94.45,94.51,94.45,94.47,2600
EOG,2017-07-20,12:09:00,94.45,94.46,94.43,94.46,2008
EOG,2017-07-20,12:10:00,94.46,94.46,94.46,94.46,200
EOG,2017-07-20,12:11:00,94.44,94.47,94.42,94.42,3002
EOG,2017-07-20,12:12:00,94.43,94.47,94.43,94.47,1100
EOG,2017-07-20,12:13:00,94.48,94.54,94.48,94.52,1957
EOG,2017-07-20,12:14:00,94.54,94.57,94.51,94.53,2000
EOG,2017-07-20,12:15:00,94.55,94.62,94.55,94.62,3448
EOG,2017-07-20,12:16:00,94.64,94.67,94.59,94.66,2100
EOG,2017-07-20,12:17:00,94.66,94.67,94.62,94.64,1700
EOG,2017-07-20,12:18:00,94.71,94.72,94.69,94.72,7600
EOG,2017-07-20,12:19:00,94.74,94.80,94.74,94.78,1755
EOG,2017-07-20,12:20:00,94.77,94.81,94.76,94.81,1300
EOG,2017-07-20,12:21:00,94.83,94.84,94.81,94.83,2250
EOG,2017-07-20,12:22:00,94.83,94.83,94.74,94.74,2641
EOG,2017-07-20,12:23:00,94.74,94.78,94.70,94.75,6420
EOG,2017-07-20,12:24:00,94.75,94.77,94.75,94.75,4000
EOG,2017-07-20,12:25:00,94.75,94.78,94.73,94.78,3000
EOG,2017-07-20,12:26:00,94.77,94.78,94.69,94.69,2150
EOG,2017-07-20,12:27:00,94.71,94.76,94.69,94.69,5550
EOG,2017-07-20,12:28:00,94.74,94.80,94.72,94.80,11350
EOG,2017-07-20,12:29:00,94.81,94.83,94.80,94.81,1327
EOG,2017-07-20,12:30:00,94.81,94.81,94.76,94.79,8647
EOG,2017-07-20,12:31:00,94.81,94.84,94.74,94.76,17249
EOG,2017-07-20,12:32:00,94.78,94.80,94.73,94.78,6006
EOG,2017-07-20,12:33:00,94.78,94.81,94.74,94.76,13407
EOG,2017-07-20,12:34:00,94.77,94.77,94.73,94.73,9183
EOG,2017-07-20,12:35:00,94.75,94.77,94.73,94.74,25037
EOG,2017-07-20,12:36:00,94.73,94.74,94.72,94.72,1600
EOG,2017-07-20,12:37:00,94.71,94.72,94.68,94.69,4066
EOG,2017-07-20,12:38:00,94.67,94.68,94.66,94.67,4274
EOG,2017-07-20,12:39:00,94.67,94.69,94.64,94.64,7301
EOG,2017-07-20,12:40:00,94.64,94.70,94.63,94.70,36266
EOG,2017-07-20,12:41:00,94.71,94.71,94.64,94.65,3200
EOG,2017-07-20,12:42:00,94.63,94.66,94.63,94.66,1850
EOG,2017-07-20,12:43:00,94.63,94.63,94.60,94.60,2300
EOG,2017-07-20,12:44:00,94.59,94.64,94.59,94.64,5101
EOG,2017-07-20,12:45:00,94.64,94.65,94.58,94.59,19937
EOG,2017-07-20,12:46:00,94.60,94.68,94.60,94.66,13900
EOG,2017-07-20,12:47:00,94.65,94.66,94.64,94.66,4750
EOG,2017-07-20,12:48:00,94.67,94.67,94.62,94.62,2100
EOG,2017-07-20,12:49:00,94.63,94.64,94.63,94.63,1800
EOG,2017-07-20,12:50:00,94.63,94.67,94.63,94.64,3800
EOG,2017-07-20,12:51:00,94.65,94.69,94.64,94.68,2745
EOG,2017-07-20,12:52:00,94.69,94.70,94.65,94.70,3461
EOG,2017-07-20,12:53:00,94.69,94.69,94.64,94.64,2500
EOG,2017-07-20,12:54:00,94.65,94.67,94.65,94.67,2041
EOG,2017-07-20,12:55:00,94.66,94.68,94.66,94.67,1721
EOG,2017-07-20,12:56:00,94.67,94.69,94.67,94.67,2400
EOG,2017-07-20,12:57:00,94.67,94.68,94.64,94.65,3086
EOG,2017-07-20,12:58:00,94.65,94.69,94.65,94.67,5250
EOG,2017-07-20,12:59:00,94.67,94.68,94.67,94.68,1134
EOG,2017-07-20,13:00:00,94.67,94.70,94.67,94.70,4186
EOG,2017-07-20,13:01:00,94.70,94.71,94.69,94.71,5327
EOG,2017-07-20,13:02:00,94.72,94.75,94.72,94.74,6297
EOG,2017-07-20,13:03:00,94.73,94.76,94.73,94.74,5306
EOG,2017-07-20,13:04:00,94.74,94.76,94.72,94.72,3420
EOG,2017-07-20,13:05:00,94.70,94.72,94.67,94.69,2113
EOG,2017-07-20,13:06:00,94.71,94.73,94.70,94.73,3200
EOG,2017-07-20,13:07:00,94.78,94.79,94.74,94.74,1700
EOG,2017-07-20,13:08:00,94.73,94.73,94.69,94.69,4808
EOG,2017-07-20,13:09:00,94.68,94.72,94.68,94.72,5498
EOG,2017-07-20,13:10:00,94.72,94.79,94.72,94.77,2205
EOG,2017-07-20,13:11:00,94.78,94.80,94.76,94.80,2433
EOG,2017-07-20,13:12:00,94.81,94.84,94.80,94.80,2200
EOG,2017-07-20,13:13:00,94.82,94.84,94.81,94.82,1900
EOG,2017-07-20,13:14:00,94.83,94.84,94.81,94.81,3111
EOG,2017-07-20,13:15:00,94.80,94.81,94.77,94.78,4123
EOG,2017-07-20,13:16:00,94.79,94.82,94.78,94.82,1850
EOG,2017-07-20,13:17:00,94.83,94.85,94.79,94.79,24286
EOG,2017-07-20,13:18:00,94.78,94.78,94.64,94.64,9044
EOG,2017-07-20,13:19:00,94.65,94.68,94.64,94.68,4596
EOG,2017-07-20,13:20:00,94.67,94.68,94.65,94.65,2199
EOG,2017-07-20,13:21:00,94.67,94.67,94.60,94.60,2400
EOG,2017-07-20,13:22:00,94.57,94.58,94.56,94.57,2300
EOG,2017-07-20,13:23:00,94.58,94.58,94.57,94.57,500
EOG,2017-07-20,13:24:00,94.59,94.61,94.56,94.58,3056
EOG,2017-07-20,13:25:00,94.56,94.56,94.52,94.52,4336
EOG,2017-07-20,13:26:00,94.53,94.53,94.48,94.50,2750
EOG,2017-07-20,13:27:00,94.50,94.52,94.47,94.50,1345
EOG,2017-07-20,13:28:00,94.47,94.51,94.47,94.50,1935
EOG,2017-07-20,13:29:00,94.49,94.50,94.44,94.46,3849
EOG,2017-07-20,13:30:00,94.45,94.48,94.45,94.48,400
EOG,2017-07-20,13:31:00,94.48,94.48,94.38,94.38,5022
EOG,2017-07-20,13:32:00,94.35,94.38,94.31,94.38,6193
EOG,2017-07-20,13:33:00,94.39,94.40,94.38,94.38,1542
EOG,2017-07-20,13:34:00,94.42,94.47,94.42,94.45,3055
EOG,2017-07-20,13:35:00,94.46,94.51,94.46,94.51,1200
EOG,2017-07-20,13:36:00,94.51,94.52,94.49,94.52,2700
EOG,2017-07-20,13:37:00,94.50,94.51,94.46,94.48,4380
EOG,2017-07-20,13:38:00,94.45,94.48,94.42,94.48,3101
EOG,2017-07-20,13:39:00,94.49,94.49,94.49,94.49,1300
EOG,2017-07-20,13:40:00,94.48,94.50,94.45,94.49,5105
EOG,2017-07-20,13:41:00,94.49,94.52,94.49,94.51,2700
EOG,2017-07-20,13:42:00,94.51,94.55,94.51,94.53,2695
EOG,2017-07-20,13:43:00,94.52,94.53,94.51,94.53,2000
EOG,2017-07-20,13:44:00,94.51,94.52,94.49,94.51,1500
EOG,2017-07-20,13:45:00,94.48,94.52,94.43,94.46,2948
EOG,2017-07-20,13:46:00,94.45,94.45,94.45,94.45,700
EOG,2017-07-20,13:47:00,94.45,94.48,94.45,94.48,2800
EOG,2017-07-20,13:48:00,94.47,94.48,94.44,94.44,3690
EOG,2017-07-20,13:49:00,94.44,94.44,94.40,94.42,2300
EOG,2017-07-20,13:50:00,94.43,94.46,94.43,94.44,1640
EOG,2017-07-20,13:51:00,94.45,94.50,94.43,94.50,2069
EOG,2017-07-20,13:52:00,94.48,94.56,94.47,94.54,4888
EOG,2017-07-20,13:53:00,94.52,94.58,94.52,94.56,1355
EOG,2017-07-20,13:54:00,94.58,94.58,94.54,94.57,3341
EOG,2017-07-20,13:55:00,94.56,94.58,94.56,94.58,1945
EOG,2017-07-20,13:56:00,94.56,94.56,94.53,94.54,3100
EOG,2017-07-20,13:57:00,94.55,94.56,94.55,94.55,500
EOG,2017-07-20,13:58:00,94.58,94.59,94.58,94.58,800
EOG,2017-07-20,13:59:00,94.55,94.59,94.55,94.59,1291
EOG,2017-07-20,14:00:00,94.56,94.57,94.54,94.56,2646
EOG,2017-07-20,14:01:00,94.53,94.53,94.48,94.48,2343
EOG,2017-07-20,14:02:00,94.48,94.51,94.48,94.50,4939
EOG,2017-07-20,14:03:00,94.50,94.51,94.50,94.50,1600
EOG,2017-07-20,14:04:00,94.52,94.58,94.51,94.58,5251
EOG,2017-07-20,14:05:00,94.59,94.60,94.58,94.59,1200
EOG,2017-07-20,14:06:00,94.58,94.59,94.54,94.58,4998
EOG,2017-07-20,14:07:00,94.58,94.64,94.56,94.63,4079
EOG,2017-07-20,14:08:00,94.66,94.66,94.62,94.62,2300
EOG,2017-07-20,14:09:00,94.62,94.64,94.62,94.62,3300
EOG,2017-07-20,14:10:00,94.61,94.61,94.58,94.60,2857
EOG,2017-07-20,14:11:00,94.60,94.62,94.59,94.59,4313
EOG,2017-07-20,14:12:00,94.61,94.61,94.58,94.58,3000
EOG,2017-07-20,14:13:00,94.61,94.69,94.59,94.66,18188
EOG,2017-07-20,14:14:00,94.66,94.66,94.64,94.64,2500
EOG,2017-07-20,14:15:00,94.63,94.64,94.61,94.62,2439
EOG,2017-07-20,14:16:00,94.63,94.63,94.55,94.55,3800
EOG,2017-07-20,14:17:00,94.54,94.55,94.50,94.51,4909
EOG,2017-07-20,14:18:00,94.52,94.55,94.52,94.55,1120
EOG,2017-07-20,14:19:00,94.55,94.56,94.55,94.55,5811
EOG,2017-07-20,14:20:00,94.55,94.61,94.55,94.60,3931
EOG,2017-07-20,14:21:00,94.58,94.62,94.57,94.62,2441
EOG,2017-07-20,14:22:00,94.62,94.69,94.62,94.66,2944
EOG,2017-07-20,14:23:00,94.65,94.71,94.65,94.71,3000
EOG,2017-07-20,14:24:00,94.74,94.75,94.72,94.73,12400
EOG,2017-07-20,14:25:00,94.74,94.74,94.72,94.74,3743
EOG,2017-07-20,14:26:00,94.72,94.74,94.65,94.65,3426
EOG,2017-07-20,14:27:00,94.66,94.71,94.66,94.70,1823
EOG,2017-07-20,14:28:00,94.68,94.69,94.65,94.69,3515
EOG,2017-07-20,14:29:00,94.69,94.74,94.69,94.73,16763
EOG,2017-07-20,14:30:00,94.73,94.76,94.72,94.73,7408
EOG,2017-07-20,14:31:00,94.73,94.73,94.62,94.62,9287
EOG,2017-07-20,14:32:00,94.61,94.66,94.61,94.66,3118
EOG,2017-07-20,14:33:00,94.64,94.66,94.61,94.62,4085
EOG,2017-07-20,14:34:00,94.64,94.64,94.58,94.58,4750
EOG,2017-07-20,14:35:00,94.57,94.57,94.53,94.53,3754
EOG,2017-07-20,14:36:00,94.53,94.56,94.50,94.53,6302
EOG,2017-07-20,14:37:00,94.53,94.53,94.43,94.43,2814
EOG,2017-07-20,14:38:00,94.43,94.43,94.37,94.38,4308
EOG,2017-07-20,14:39:00,94.37,94.38,94.34,94.37,1750
EOG,2017-07-20,14:40:00,94.37,94.39,94.35,94.35,3835
EOG,2017-07-20,14:41:00,94.36,94.44,94.34,94.43,6728
EOG,2017-07-20,14:42:00,94.42,94.47,94.39,94.40,3524
EOG,2017-07-20,14:43:00,94.41,94.41,94.34,94.35,2806
EOG,2017-07-20,14:44:00,94.34,94.37,94.34,94.37,2726
EOG,2017-07-20,14:45:00,94.38,94.40,94.36,94.37,3531
EOG,2017-07-20,14:46:00,94.37,94.40,94.37,94.40,2219
EOG,2017-07-20,14:47:00,94.40,94.44,94.40,94.44,2000
EOG,2017-07-20,14:48:00,94.39,94.39,94.36,94.36,2100
EOG,2017-07-20,14:49:00,94.35,94.38,94.35,94.36,600
EOG,2017-07-20,14:50:00,94.35,94.35,94.29,94.31,4366
EOG,2017-07-20,14:51:00,94.29,94.34,94.29,94.34,2214
EOG,2017-07-20,14:52:00,94.36,94.38,94.34,94.34,3281
EOG,2017-07-20,14:53:00,94.35,94.38,94.35,94.37,2395
EOG,2017-07-20,14:54:00,94.36,94.37,94.35,94.36,3400
EOG,2017-07-20,14:55:00,94.35,94.35,94.32,94.32,1392
EOG,2017-07-20,14:56:00,94.33,94.33,94.31,94.32,2375
EOG,2017-07-20,14:57:00,94.31,94.40,94.31,94.39,3009
EOG,2017-07-20,14:58:00,94.39,94.41,94.39,94.41,1609
EOG,2017-07-20,14:59:00,94.41,94.41,94.39,94.39,3171
EOG,2017-07-20,15:00:00,94.38,94.39,94.36,94.36,2689
EOG,2017-07-20,15:01:00,94.36,94.38,94.36,94.37,3681
EOG,2017-07-20,15:02:00,94.38,94.38,94.33,94.33,3988
EOG,2017-07-20,15:03:00,94.32,94.34,94.30,94.33,4261
EOG,2017-07-20,15:04:00,94.34,94.34,94.33,94.33,2481
EOG,2017-07-20,15:05:00,94.34,94.36,94.33,94.36,4000
EOG,2017-07-20,15:06:00,94.37,94.37,94.33,94.35,4200
EOG,2017-07-20,15:07:00,94.36,94.39,94.36,94.37,4211
EOG,2017-07-20,15:08:00,94.38,94.42,94.38,94.41,4140
EOG,2017-07-20,15:09:00,94.41,94.42,94.36,94.36,3658
EOG,2017-07-20,15:10:00,94.36,94.36,94.29,94.29,6863
EOG,2017-07-20,15:11:00,94.30,94.32,94.29,94.31,4700
EOG,2017-07-20,15:12:00,94.32,94.33,94.32,94.32,1614
EOG,2017-07-20,15:13:00,94.33,94.34,94.33,94.34,4838
EOG,2017-07-20,15:14:00,94.33,94.35,94.33,94.35,1501
EOG,2017-07-20,15:15:00,94.34,94.36,94.34,94.35,3300
EOG,2017-07-20,15:16:00,94.35,94.36,94.25,94.25,5479
EOG,2017-07-20,15:17:00,94.27,94.30,94.27,94.30,2650
EOG,2017-07-20,15:18:00,94.30,94.33,94.30,94.32,4000
EOG,2017-07-20,15:19:00,94.32,94.33,94.24,94.25,4600
EOG,2017-07-20,15:20:00,94.25,94.25,94.23,94.23,2678
EOG,2017-07-20,15:21:00,94.25,94.25,94.16,94.17,4394
EOG,2017-07-20,15:22:00,94.16,94.16,94.15,94.16,600
EOG,2017-07-20,15:23:00,94.15,94.16,94.15,94.16,3300
EOG,2017-07-20,15:24:00,94.16,94.16,94.14,94.15,6237
EOG,2017-07-20,15:25:00,94.14,94.16,94.14,94.16,3500
EOG,2017-07-20,15:26:00,94.15,94.17,94.14,94.16,14622
EOG,2017-07-20,15:27:00,94.17,94.23,94.17,94.23,4552
EOG,2017-07-20,15:28:00,94.24,94.28,94.24,94.27,3681
EOG,2017-07-20,15:29:00,94.27,94.28,94.25,94.27,5700
EOG,2017-07-20,15:30:00,94.27,94.29,94.27,94.28,1700
EOG,2017-07-20,15:31:00,94.29,94.37,94.29,94.37,4985
EOG,2017-07-20,15:32:00,94.39,94.42,94.36,94.36,11381
EOG,2017-07-20,15:33:00,94.35,94.39,94.35,94.38,4175
EOG,2017-07-20,15:34:00,94.38,94.40,94.37,94.40,7666
EOG,2017-07-20,15:35:00,94.38,94.38,94.32,94.34,5808
EOG,2017-07-20,15:36:00,94.35,94.36,94.33,94.33,4794
EOG,2017-07-20,15:37:00,94.33,94.33,94.29,94.31,7094
EOG,2017-07-20,15:38:00,94.30,94.32,94.30,94.30,6680
EOG,2017-07-20,15:39:00,94.29,94.30,94.26,94.27,5423
EOG,2017-07-20,15:40:00,94.27,94.29,94.24,94.24,7368
EOG,2017-07-20,15:41:00,94.24,94.26,94.10,94.10,16219
EOG,2017-07-20,15:42:00,94.12,94.14,94.11,94.12,8522
EOG,2017-07-20,15:43:00,94.12,94.12,94.05,94.09,11776
EOG,2017-07-20,15:44:00,94.10,94.19,94.09,94.18,5510
EOG,2017-07-20,15:45:00,94.16,94.16,93.98,93.98,14948
EOG,2017-07-20,15:46:00,93.99,93.99,93.93,93.94,9420
EOG,2017-07-20,15:47:00,93.94,93.98,93.92,93.95,9590
EOG,2017-07-20,15:48:00,93.95,93.95,93.92,93.92,6350
EOG,2017-07-20,15:49:00,93.92,93.93,93.88,93.88,11106
EOG,2017-07-20,15:50:00,93.88,93.88,93.77,93.77,6973
EOG,2017-07-20,15:51:00,93.77,93.77,93.72,93.75,19053
EOG,2017-07-20,15:52:00,93.74,93.76,93.72,93.72,13601
EOG,2017-07-20,15:53:00,93.73,93.74,93.70,93.71,15401
EOG,2017-07-20,15:54:00,93.71,93.76,93.70,93.75,22802
EOG,2017-07-20,15:55:00,93.74,93.80,93.74,93.78,12876
EOG,2017-07-20,15:56:00,93.78,93.78,93.73,93.74,28963
EOG,2017-07-20,15:57:00,93.74,93.74,93.67,93.67,23726
EOG,2017-07-20,15:58:00,93.67,93.68,93.59,93.61,32743
EOG,2017-07-20,15:59:00,93.61,93.65,93.57,93.60,47372
EOG,2017-07-20,16:00:00,93.61,93.69,93.58,93.68,62841
EOG,2017-07-21,09:31:00,93.39,93.48,93.35,93.48,5148
EOG,2017-07-21,09:32:00,93.43,93.59,93.39,93.54,6338
EOG,2017-07-21,09:33:00,93.47,93.64,93.42,93.47,161153
EOG,2017-07-21,09:34:00,93.55,93.79,93.55,93.79,1300
EOG,2017-07-21,09:35:00,93.80,93.80,93.38,93.54,5594
EOG,2017-07-21,09:36:00,93.57,93.58,93.44,93.45,5175
EOG,2017-07-21,09:37:00,93.41,93.53,93.40,93.43,3672
EOG,2017-07-21,09:38:00,93.43,93.51,93.42,93.45,3700
EOG,2017-07-21,09:39:00,93.47,93.47,93.31,93.36,3539
EOG,2017-07-21,09:40:00,93.33,93.33,93.15,93.25,1900
EOG,2017-07-21,09:41:00,93.25,93.25,93.05,93.07,6100
EOG,2017-07-21,09:42:00,93.09,93.19,93.08,93.15,8493
EOG,2017-07-21,09:43:00,93.10,93.28,93.10,93.20,10726
EOG,2017-07-21,09:44:00,93.22,93.23,93.13,93.15,2525
EOG,2017-07-21,09:45:00,93.22,93.23,93.15,93.18,1100
EOG,2017-07-21,09:46:00,93.16,93.23,93.13,93.17,45797
EOG,2017-07-21,09:47:00,93.18,93.25,93.17,93.23,3700
EOG,2017-07-21,09:48:00,93.22,93.32,93.17,93.31,8102
EOG,2017-07-21,09:49:00,93.27,93.29,93.22,93.25,5551
EOG,2017-07-21,09:50:00,93.25,93.26,93.21,93.24,6800
EOG,2017-07-21,09:51:00,93.29,93.34,93.24,93.28,60827
EOG,2017-07-21,09:52:00,93.28,93.39,93.25,93.25,20155
EOG,2017-07-21,09:53:00,93.23,93.23,93.02,93.20,5484
EOG,2017-07-21,09:54:00,93.20,93.29,93.17,93.26,6613
EOG,2017-07-21,09:55:00,93.28,93.28,93.17,93.25,6293
EOG,2017-07-21,09:56:00,93.20,93.23,93.16,93.17,6225
EOG,2017-07-21,09:57:00,93.17,93.23,93.14,93.15,10500
EOG,2017-07-21,09:58:00,93.17,93.17,93.03,93.03,3394
EOG,2017-07-21,09:59:00,93.04,93.06,92.94,92.94,3805
EOG,2017-07-21,10:00:00,92.91,92.91,92.83,92.86,7116
EOG,2017-07-21,10:01:00,92.88,92.88,92.78,92.81,2300
EOG,2017-07-21,10:02:00,92.82,92.86,92.78,92.79,12844
EOG,2017-07-21,10:03:00,92.79,92.82,92.74,92.74,3912
EOG,2017-07-21,10:04:00,92.75,92.75,92.52,92.52,13477
EOG,2017-07-21,10:05:00,92.51,92.64,92.48,92.57,15412
EOG,2017-07-21,10:06:00,92.56,92.56,92.50,92.53,7773
EOG,2017-07-21,10:07:00,92.55,92.66,92.55,92.64,7451
EOG,2017-07-21,10:08:00,92.62,92.62,92.52,92.54,7403
EOG,2017-07-21,10:09:00,92.53,92.62,92.49,92.55,4262
EOG,2017-07-21,10:10:00,92.55,92.56,92.48,92.48,4158
EOG,2017-07-21,10:11:00,92.50,92.50,92.43,92.49,6043
EOG,2017-07-21,10:12:00,92.48,92.49,92.42,92.43,4464
EOG,2017-07-21,10:13:00,92.45,92.47,92.38,92.47,8197
EOG,2017-07-21,10:14:00,92.51,92.64,92.50,92.64,6987
EOG,2017-07-21,10:15:00,92.65,92.69,92.65,92.69,1994
EOG,2017-07-21,10:16:00,92.71,92.71,92.61,92.62,5226
EOG,2017-07-21,10:17:00,92.64,92.65,92.58,92.61,4260
EOG,2017-07-21,10:18:00,92.60,92.64,92.58,92.61,3400
EOG,2017-07-21,10:19:00,92.63,92.75,92.62,92.72,7374
EOG,2017-07-21,10:20:00,92.68,92.68,92.58,92.58,4857
EOG,2017-07-21,10:21:00,92.59,92.64,92.56,92.56,5418
EOG,2017-07-21,10:22:00,92.57,92.64,92.57,92.62,2500
EOG,2017-07-21,10:23:00,92.60,92.69,92.58,92.67,3200
EOG,2017-07-21,10:24:00,92.67,92.77,92.61,92.76,5970
EOG,2017-07-21,10:25:00,92.75,92.80,92.72,92.78,2600
EOG,2017-07-21,10:26:00,92.79,92.81,92.75,92.77,1600
EOG,2017-07-21,10:27:00,92.74,92.74,92.65,92.67,6000
EOG,2017-07-21,10:28:00,92.67,92.69,92.64,92.69,3101
EOG,2017-07-21,10:29:00,92.69,92.80,92.69,92.80,4907
EOG,2017-07-21,10:30:00,92.81,92.81,92.75,92.77,2400
EOG,2017-07-21,10:31:00,92.76,92.79,92.73,92.74,3844
EOG,2017-07-21,10:32:00,92.74,92.75,92.66,92.73,4276
EOG,2017-07-21,10:33:00,92.73,92.75,92.65,92.65,2020
EOG,2017-07-21,10:34:00,92.66,92.73,92.65,92.68,3000
EOG,2017-07-21,10:35:00,92.67,92.77,92.62,92.70,6600
EOG,2017-07-21,10:36:00,92.71,92.77,92.68,92.73,5741
EOG,2017-07-21,10:37:00,92.74,92.82,92.74,92.77,4385
EOG,2017-07-21,10:38:00,92.76,92.79,92.72,92.79,11303
EOG,2017-07-21,10:39:00,92.80,92.82,92.70,92.76,11760
EOG,2017-07-21,10:40:00,92.77,92.83,92.77,92.81,3689
EOG,2017-07-21,10:41:00,92.79,92.79,92.65,92.71,7249
EOG,2017-07-21,10:42:00,92.68,92.72,92.68,92.70,5483
EOG,2017-07-21,10:43:00,92.69,92.69,92.61,92.67,5001
EOG,2017-07-21,10:44:00,92.65,92.72,92.62,92.72,3105
EOG,2017-07-21,10:45:00,92.74,92.77,92.71,92.75,4200
EOG,2017-07-21,10:46:00,92.72,92.76,92.69,92.73,4448
EOG,2017-07-21,10:47:00,92.73,92.77,92.71,92.76,3300
EOG,2017-07-21,10:48:00,92.76,92.76,92.68,92.69,10857
EOG,2017-07-21,10:49:00,92.69,92.74,92.67,92.74,8710
EOG,2017-07-21,10:50:00,92.74,92.74,92.67,92.67,2600
EOG,2017-07-21,10:51:00,92.67,92.74,92.67,92.72,7277
EOG,2017-07-21,10:52:00,92.72,92.73,92.71,92.73,1500
EOG,2017-07-21,10:53:00,92.74,92.74,92.67,92.71,4638
EOG,2017-07-21,10:54:00,92.72,92.77,92.71,92.75,2000
EOG,2017-07-21,10:55:00,92.77,92.77,92.70,92.70,5185
EOG,2017-07-21,10:56:00,92.68,92.74,92.68,92.72,4400
EOG,2017-07-21,10:57:00,92.72,92.72,92.64,92.64,3660
EOG,2017-07-21,10:58:00,92.67,92.68,92.64,92.66,4210
EOG,2017-07-21,10:59:00,92.65,92.69,92.62,92.69,1800
EOG,2017-07-21,11:00:00,92.69,92.70,92.67,92.70,4042
EOG,2017-07-21,11:01:00,92.71,92.79,92.71,92.79,2700
EOG,2017-07-21,11:02:00,92.79,92.89,92.79,92.86,9741
EOG,2017-07-21,11:03:00,92.88,92.96,92.88,92.96,4200
EOG,2017-07-21,11:04:00,92.97,92.97,92.87,92.87,2733
EOG,2017-07-21,11:05:00,92.85,92.93,92.85,92.89,9400
EOG,2017-07-21,11:06:00,92.89,92.97,92.89,92.97,4332
EOG,2017-07-21,11:07:00,92.99,92.99,92.97,92.98,1818
EOG,2017-07-21,11:08:00,93.00,93.08,92.99,93.00,5219
EOG,2017-07-21,11:09:00,93.01,93.06,93.00,93.01,4340
EOG,2017-07-21,11:10:00,92.97,92.98,92.94,92.97,2623
EOG,2017-07-21,11:11:00,92.97,93.00,92.97,92.99,5674
EOG,2017-07-21,11:12:00,92.99,93.11,92.99,93.10,1900
EOG,2017-07-21,11:13:00,93.09,93.09,93.05,93.05,3634
EOG,2017-07-21,11:14:00,93.06,93.09,93.06,93.08,2600
EOG,2017-07-21,11:15:00,93.07,93.07,93.00,93.01,2301
EOG,2017-07-21,11:16:00,93.00,93.02,92.97,92.97,5390
EOG,2017-07-21,11:17:00,92.99,92.99,92.91,92.93,4027
EOG,2017-07-21,11:18:00,92.93,92.93,92.91,92.91,400
EOG,2017-07-21,11:19:00,92.92,92.94,92.92,92.94,5072
EOG,2017-07-21,11:20:00,92.93,93.00,92.92,92.97,2998
EOG,2017-07-21,11:21:00,92.96,92.97,92.91,92.91,2500
EOG,2017-07-21,11:22:00,92.88,92.91,92.87,92.89,3411
EOG,2017-07-21,11:23:00,92.88,92.89,92.86,92.86,3400
EOG,2017-07-21,11:24:00,92.88,92.95,92.88,92.94,2600
EOG,2017-07-21,11:25:00,92.92,92.93,92.90,92.93,2700
EOG,2017-07-21,11:26:00,92.94,93.02,92.94,93.01,3100
EOG,2017-07-21,11:27:00,93.02,93.05,93.02,93.02,1700
EOG,2017-07-21,11:28:00,93.03,93.09,93.03,93.08,2400
EOG,2017-07-21,11:29:00,93.06,93.09,93.06,93.06,1800
EOG,2017-07-21,11:30:00,93.06,93.10,93.03,93.06,3594
EOG,2017-07-21,11:31:00,93.06,93.06,93.03,93.04,1300
EOG,2017-07-21,11:32:00,93.06,93.08,93.05,93.08,2400
EOG,2017-07-21,11:33:00,93.07,93.08,93.06,93.08,1494
EOG,2017-07-21,11:34:00,93.08,93.08,92.99,93.01,3173
EOG,2017-07-21,11:35:00,92.98,92.98,92.97,92.97,800
EOG,2017-07-21,11:36:00,92.97,93.04,92.96,92.99,3510
EOG,2017-07-21,11:37:00,93.00,93.00,93.00,93.00,800
EOG,2017-07-21,11:38:00,92.99,92.99,92.85,92.88,3100
EOG,2017-07-21,11:39:00,92.89,92.92,92.84,92.84,6210
EOG,2017-07-21,11:40:00,92.82,92.85,92.82,92.83,2000
EOG,2017-07-21,11:41:00,92.82,92.88,92.82,92.88,1893
EOG,2017-07-21,11:42:00,92.88,92.89,92.86,92.87,1900
EOG,2017-07-21,11:43:00,92.85,92.88,92.84,92.86,2020
EOG,2017-07-21,11:44:00,92.88,92.92,92.88,92.88,3515
EOG,2017-07-21,11:45:00,92.84,92.90,92.83,92.87,2202
EOG,2017-07-21,11:46:00,92.85,92.88,92.81,92.87,6771
EOG,2017-07-21,11:47:00,92.88,92.90,92.84,92.85,2000
EOG,2017-07-21,11:48:00,92.83,92.83,92.80,92.81,7400
EOG,2017-07-21,11:49:00,92.80,92.80,92.76,92.76,2100
EOG,2017-07-21,11:50:00,92.79,92.81,92.70,92.77,6543
EOG,2017-07-21,11:51:00,92.77,92.83,92.75,92.83,3795
EOG,2017-07-21,11:52:00,92.82,92.92,92.82,92.88,4314
EOG,2017-07-21,11:53:00,92.87,92.93,92.87,92.92,1702
EOG,2017-07-21,11:54:00,92.91,92.91,92.89,92.89,500
EOG,2017-07-21,11:55:00,92.88,92.88,92.83,92.85,2000
EOG,2017-07-21,11:56:00,92.85,92.86,92.82,92.82,1700
EOG,2017-07-21,11:57:00,92.83,92.87,92.83,92.86,3133
EOG,2017-07-21,11:58:00,92.85,92.85,92.83,92.83,1500
EOG,2017-07-21,11:59:00,92.80,92.82,92.75,92.82,1500
EOG,2017-07-21,12:00:00,92.82,92.83,92.79,92.81,2123
EOG,2017-07-21,12:01:00,92.80,92.88,92.75,92.88,3200
EOG,2017-07-21,12:02:00,92.86,92.93,92.84,92.93,1700
EOG,2017-07-21,12:03:00,92.93,92.93,92.88,92.88,1500
EOG,2017-07-21,12:04:00,92.89,92.91,92.86,92.91,2448
EOG,2017-07-21,12:05:00,92.88,92.90,92.86,92.90,854
EOG,2017-07-21,12:06:00,92.91,92.94,92.90,92.93,1430
EOG,2017-07-21,12:07:00,92.93,92.98,92.93,92.98,800
EOG,2017-07-21,12:08:00,92.98,92.98,92.95,92.95,2463
EOG,2017-07-21,12:09:00,92.94,92.97,92.94,92.97,1100
EOG,2017-07-21,12:10:00,92.97,92.97,92.93,92.93,1900
EOG,2017-07-21,12:11:00,92.92,92.95,92.92,92.95,600
EOG,2017-07-21,12:12:00,92.93,92.93,92.84,92.88,1900
EOG,2017-07-21,12:13:00,92.90,92.95,92.90,92.94,2000
EOG,2017-07-21,12:14:00,92.93,92.94,92.93,92.93,562
EOG,2017-07-21,12:15:00,92.94,92.94,92.91,92.91,900
EOG,2017-07-21,12:16:00,92.90,93.02,92.90,93.02,1300
EOG,2017-07-21,12:17:00,93.02,93.03,93.00,93.03,3036
EOG,2017-07-21,12:18:00,93.06,93.08,93.05,93.05,800
EOG,2017-07-21,12:19:00,93.03,93.07,93.02,93.07,1000
EOG,2017-07-21,12:20:00,93.06,93.10,93.06,93.06,1500
EOG,2017-07-21,12:21:00,93.06,93.06,93.05,93.05,1080
EOG,2017-07-21,12:22:00,93.05,93.07,93.05,93.07,700
EOG,2017-07-21,12:23:00,93.08,93.08,92.96,92.97,8211
EOG,2017-07-21,12:24:00,92.99,92.99,92.90,92.93,4700
EOG,2017-07-21,12:25:00,92.92,92.92,92.87,92.88,2800
EOG,2017-07-21,12:26:00,92.89,92.92,92.86,92.91,2917
EOG,2017-07-21,12:27:00,92.90,92.94,92.90,92.94,700
EOG,2017-07-21,12:28:00,92.92,92.92,92.89,92.90,1202
EOG,2017-07-21,12:29:00,92.86,92.93,92.82,92.93,3016
EOG,2017-07-21,12:30:00,92.93,92.96,92.91,92.94,5300
EOG,2017-07-21,12:31:00,92.94,92.94,92.88,92.90,819
EOG,2017-07-21,12:32:00,92.92,92.96,92.90,92.92,1604
EOG,2017-07-21,12:33:00,92.88,92.90,92.83,92.87,2918
EOG,2017-07-21,12:34:00,92.86,92.86,92.86,92.86,300
EOG,2017-07-21,12:35:00,92.83,92.83,92.77,92.77,1717
EOG,2017-07-21,12:36:00,92.76,92.84,92.76,92.77,2110
EOG,2017-07-21,12:37:00,92.80,92.82,92.78,92.82,1300
EOG,2017-07-21,12:38:00,92.81,92.81,92.78,92.78,600
EOG,2017-07-21,12:39:00,92.78,92.81,92.78,92.81,1850
EOG,2017-07-21,12:40:00,92.81,92.81,92.81,92.81,100
EOG,2017-07-21,12:41:00,92.81,92.83,92.78,92.78,5948
EOG,2017-07-21,12:42:00,92.80,92.80,92.75,92.77,1401
EOG,2017-07-21,12:43:00,92.77,92.78,92.74,92.74,5290
EOG,2017-07-21,12:44:00,92.75,92.77,92.74,92.75,2200
EOG,2017-07-21,12:45:00,92.73,92.73,92.67,92.70,3408
EOG,2017-07-21,12:46:00,92.70,92.72,92.68,92.72,3644
EOG,2017-07-21,12:47:00,92.73,92.74,92.72,92.72,2916
EOG,2017-07-21,12:48:00,92.70,92.70,92.66,92.68,3914
EOG,2017-07-21,12:49:00,92.70,92.72,92.69,92.72,1950
EOG,2017-07-21,12:50:00,92.70,92.75,92.69,92.74,2704
EOG,2017-07-21,12:51:00,92.75,92.76,92.74,92.76,1940
EOG,2017-07-21,12:52:00,92.74,92.74,92.69,92.69,1275
EOG,2017-07-21,12:53:00,92.70,92.72,92.64,92.70,16544
EOG,2017-07-21,12:54:00,92.68,92.68,92.63,92.65,2628
EOG,2017-07-21,12:55:00,92.66,92.69,92.65,92.65,1616
EOG,2017-07-21,12:56:00,92.62,92.68,92.62,92.68,1410
EOG,2017-07-21,12:57:00,92.66,92.70,92.66,92.68,4850
EOG,2017-07-21,12:58:00,92.69,92.75,92.69,92.74,1846
EOG,2017-07-21,12:59:00,92.72,92.74,92.71,92.74,1361
EOG,2017-07-21,13:00:00,92.74,92.75,92.74,92.75,900
EOG,2017-07-21,13:01:00,92.75,92.79,92.75,92.79,1800
EOG,2017-07-21,13:02:00,92.81,92.83,92.78,92.80,11400
EOG,2017-07-21,13:03:00,92.80,92.90,92.80,92.90,2500
EOG,2017-07-21,13:04:00,92.89,92.89,92.82,92.82,2269
EOG,2017-07-21,13:05:00,92.86,92.86,92.83,92.85,1473
EOG,2017-07-21,13:06:00,92.84,92.88,92.81,92.86,1900
EOG,2017-07-21,13:07:00,92.86,92.91,92.84,92.88,1500
EOG,2017-07-21,13:08:00,92.87,92.88,92.82,92.85,2500
EOG,2017-07-21,13:09:00,92.87,92.87,92.84,92.87,1800
EOG,2017-07-21,13:10:00,92.86,92.91,92.86,92.89,1500
EOG,2017-07-21,13:11:00,92.89,92.92,92.88,92.88,1600
EOG,2017-07-21,13:12:00,92.87,92.87,92.83,92.83,703
EOG,2017-07-21,13:13:00,92.80,92.82,92.80,92.80,1600
EOG,2017-07-21,13:14:00,92.81,92.85,92.81,92.85,900
EOG,2017-07-21,13:15:00,92.82,92.82,92.78,92.78,900
EOG,2017-07-21,13:16:00,92.78,92.79,92.76,92.79,2900
EOG,2017-07-21,13:17:00,92.81,92.87,92.81,92.87,2900
EOG,2017-07-21,13:18:00,92.85,92.87,92.84,92.87,1100
EOG,2017-07-21,13:19:00,92.85,92.91,92.85,92.91,1400
EOG,2017-07-21,13:20:00,92.91,92.91,92.87,92.88,1279
EOG,2017-07-21,13:21:00,92.85,92.87,92.84,92.84,1500
EOG,2017-07-21,13:22:00,92.81,92.81,92.81,92.81,240
EOG,2017-07-21,13:23:00,92.81,92.86,92.81,92.86,1300
EOG,2017-07-21,13:24:00,92.87,92.87,92.86,92.87,1557
EOG,2017-07-21,13:25:00,92.86,92.86,92.86,92.86,200
EOG,2017-07-21,13:26:00,92.86,92.91,92.86,92.90,3474
EOG,2017-07-21,13:27:00,92.91,92.95,92.91,92.95,6722
EOG,2017-07-21,13:28:00,92.95,92.99,92.95,92.98,1708
EOG,2017-07-21,13:29:00,93.00,93.02,92.99,92.99,2800
EOG,2017-07-21,13:30:00,93.01,93.04,92.97,93.00,1858
EOG,2017-07-21,13:31:00,93.00,93.02,92.99,93.02,2300
EOG,2017-07-21,13:32:00,93.02,93.06,93.02,93.05,2715
EOG,2017-07-21,13:33:00,93.02,93.05,93.02,93.05,1980
EOG,2017-07-21,13:34:00,93.03,93.07,93.02,93.07,4020
EOG,2017-07-21,13:35:00,93.09,93.09,93.07,93.07,400
EOG,2017-07-21,13:36:00,93.07,93.07,93.04,93.06,900
EOG,2017-07-21,13:37:00,93.06,93.11,93.06,93.08,1500
EOG,2017-07-21,13:38:00,93.05,93.10,93.05,93.09,1450
EOG,2017-07-21,13:39:00,93.10,93.14,93.09,93.09,4531
EOG,2017-07-21,13:40:00,93.11,93.12,93.09,93.10,1200
EOG,2017-07-21,13:41:00,93.09,93.10,93.09,93.10,1500
EOG,2017-07-21,13:42:00,93.10,93.10,93.08,93.09,1200
EOG,2017-07-21,13:43:00,93.06,93.06,93.02,93.05,1600
EOG,2017-07-21,13:44:00,93.07,93.07,93.01,93.01,800
EOG,2017-07-21,13:45:00,93.01,93.01,93.01,93.01,550
EOG,2017-07-21,13:46:00,93.01,93.01,92.98,93.00,3959
EOG,2017-07-21,13:47:00,93.00,93.00,92.96,92.97,1600
EOG,2017-07-21,13:48:00,92.98,93.03,92.98,93.03,1100
EOG,2017-07-21,13:49:00,93.01,93.02,92.99,92.99,2247
EOG,2017-07-21,13:50:00,93.02,93.04,92.96,92.96,2800
EOG,2017-07-21,13:51:00,92.94,92.95,92.93,92.94,1100
EOG,2017-07-21,13:52:00,92.94,92.94,92.91,92.93,2187
EOG,2017-07-21,13:53:00,92.92,92.92,92.91,92.91,1100
EOG,2017-07-21,13:54:00,92.92,92.93,92.91,92.92,2901
EOG,2017-07-21,13:55:00,92.92,92.93,92.91,92.92,1598
EOG,2017-07-21,13:56:00,92.91,92.95,92.89,92.93,3800
EOG,2017-07-21,13:57:00,92.93,92.93,92.91,92.92,900
EOG,2017-07-21,13:58:00,92.92,92.94,92.92,92.93,1600
EOG,2017-07-21,13:59:00,92.94,92.95,92.94,92.94,1700
EOG,2017-07-21,14:00:00,92.93,92.93,92.82,92.83,3470
EOG,2017-07-21,14:01:00,92.85,92.89,92.82,92.89,2848
EOG,2017-07-21,14:02:00,92.90,92.93,92.89,92.93,1900
EOG,2017-07-21,14:03:00,92.97,92.97,92.88,92.92,3933
EOG,2017-07-21,14:04:00,92.93,92.95,92.90,92.95,856
EOG,2017-07-21,14:05:00,92.95,92.95,92.91,92.91,1305
EOG,2017-07-21,14:06:00,92.90,92.90,92.89,92.89,1646
EOG,2017-07-21,14:07:00,92.89,92.94,92.89,92.89,2900
EOG,2017-07-21,14:08:00,92.89,92.91,92.89,92.89,1782
EOG,2017-07-21,14:09:00,92.90,92.91,92.90,92.91,500
EOG,2017-07-21,14:10:00,92.90,92.91,92.90,92.91,1750
EOG,2017-07-21,14:11:00,92.92,92.93,92.91,92.93,861
EOG,2017-07-21,14:12:00,92.93,92.99,92.93,92.99,1450
EOG,2017-07-21,14:13:00,93.00,93.03,92.97,92.98,8555
EOG,2017-07-21,14:14:00,92.98,93.00,92.93,93.00,4410
EOG,2017-07-21,14:15:00,93.01,93.03,93.00,93.00,1118
EOG,2017-07-21,14:16:00,93.02,93.02,92.98,92.98,2550
EOG,2017-07-21,14:17:00,93.00,93.06,92.98,93.04,3927
EOG,2017-07-21,14:18:00,93.01,93.09,93.00,93.09,2799
EOG,2017-07-21,14:19:00,93.06,93.11,93.06,93.09,3231
EOG,2017-07-21,14:20:00,93.15,93.23,93.13,93.23,5188
EOG,2017-07-21,14:21:00,93.24,93.30,93.21,93.30,10326
EOG,2017-07-21,14:22:00,93.31,93.31,93.23,93.24,3500
EOG,2017-07-21,14:23:00,93.23,93.23,93.18,93.20,3900
EOG,2017-07-21,14:24:00,93.17,93.20,93.16,93.19,5650
EOG,2017-07-21,14:25:00,93.19,93.19,93.12,93.17,2100
EOG,2017-07-21,14:26:00,93.21,93.21,93.19,93.19,2400
EOG,2017-07-21,14:27:00,93.19,93.21,93.15,93.16,4289
EOG,2017-07-21,14:28:00,93.15,93.24,93.13,93.24,11756
EOG,2017-07-21,14:29:00,93.23,93.25,93.19,93.23,5332
EOG,2017-07-21,14:30:00,93.22,93.23,93.19,93.23,1752
EOG,2017-07-21,14:31:00,93.25,93.25,93.19,93.21,1500
EOG,2017-07-21,14:32:00,93.20,93.21,93.13,93.15,3505
EOG,2017-07-21,14:33:00,93.16,93.16,93.16,93.16,100
EOG,2017-07-21,14:34:00,93.20,93.21,93.18,93.19,1100
EOG,2017-07-21,14:35:00,93.18,93.22,93.17,93.22,3309
EOG,2017-07-21,14:36:00,93.23,93.23,93.17,93.22,2600
EOG,2017-07-21,14:37:00,93.23,93.24,93.23,93.24,200
EOG,2017-07-21,14:38:00,93.25,93.28,93.23,93.23,3600
EOG,2017-07-21,14:39:00,93.23,93.24,93.19,93.19,1700
EOG,2017-07-21,14:40:00,93.17,93.19,93.16,93.17,2500
EOG,2017-07-21,14:41:00,93.15,93.15,93.13,93.13,500
EOG,2017-07-21,14:42:00,93.12,93.12,93.09,93.09,4100
EOG,2017-07-21,14:43:00,93.09,93.13,93.07,93.13,2703
EOG,2017-07-21,14:44:00,93.13,93.13,93.11,93.12,2300
EOG,2017-07-21,14:45:00,93.10,93.10,93.06,93.06,800
EOG,2017-07-21,14:46:00,93.06,93.07,93.02,93.07,3413
EOG,2017-07-21,14:47:00,93.08,93.08,93.04,93.08,4151
EOG,2017-07-21,14:48:00,93.08,93.08,93.04,93.06,3432
EOG,2017-07-21,14:49:00,93.05,93.09,93.05,93.06,2201
EOG,2017-07-21,14:50:00,93.04,93.04,92.99,92.99,700
EOG,2017-07-21,14:51:00,92.99,93.02,92.98,93.02,4096
EOG,2017-07-21,14:52:00,93.02,93.02,92.97,93.01,3600
EOG,2017-07-21,14:53:00,92.99,92.99,92.99,92.99,100
EOG,2017-07-21,14:54:00,93.00,93.00,92.99,92.99,1300
EOG,2017-07-21,14:55:00,92.96,92.96,92.95,92.95,800
EOG,2017-07-21,14:56:00,92.93,92.94,92.92,92.94,1000
EOG,2017-07-21,14:57:00,92.95,92.96,92.93,92.93,3600
EOG,2017-07-21,14:58:00,92.92,92.96,92.92,92.96,5211
EOG,2017-07-21,14:59:00,92.96,92.99,92.95,92.99,4889
EOG,2017-07-21,15:00:00,92.98,92.99,92.95,92.99,22898
EOG,2017-07-21,15:01:00,92.99,93.00,92.97,93.00,4493
EOG,2017-07-21,15:02:00,93.01,93.02,92.99,93.02,2002
EOG,2017-07-21,15:03:00,93.03,93.05,93.02,93.02,4235
EOG,2017-07-21,15:04:00,93.02,93.05,93.02,93.05,1000
EOG,2017-07-21,15:05:00,93.06,93.09,93.04,93.04,3043
EOG,2017-07-21,15:06:00,93.03,93.03,92.98,92.98,2100
EOG,2017-07-21,15:07:00,92.97,93.05,92.97,93.02,5212
EOG,2017-07-21,15:08:00,93.01,93.01,92.98,92.98,1768
EOG,2017-07-21,15:09:00,92.99,93.02,92.99,93.02,2760
EOG,2017-07-21,15:10:00,93.03,93.06,93.01,93.06,7471
EOG,2017-07-21,15:11:00,93.06,93.06,93.03,93.04,2400
EOG,2017-07-21,15:12:00,93.03,93.03,93.02,93.02,2709
EOG,2017-07-21,15:13:00,93.02,93.02,93.01,93.01,21400
EOG,2017-07-21,15:14:00,93.00,93.03,93.00,93.02,1576
EOG,2017-07-21,15:15:00,93.03,93.05,93.03,93.03,1393
EOG,2017-07-21,15:16:00,93.04,93.04,93.02,93.02,2641
EOG,2017-07-21,15:17:00,93.03,93.04,93.02,93.02,3397
EOG,2017-07-21,15:18:00,93.02,93.03,93.01,93.02,4714
EOG,2017-07-21,15:19:00,93.01,93.01,92.96,92.96,33156
EOG,2017-07-21,15:20:00,92.98,92.99,92.96,92.97,4804
EOG,2017-07-21,15:21:00,92.95,92.97,92.92,92.92,26198
EOG,2017-07-21,15:22:00,92.93,92.93,92.92,92.93,2700
EOG,2017-07-21,15:23:00,92.93,92.93,92.81,92.82,18242
EOG,2017-07-21,15:24:00,92.81,92.81,92.80,92.80,853
EOG,2017-07-21,15:25:00,92.80,92.81,92.75,92.76,6452
EOG,2017-07-21,15:26:00,92.75,92.83,92.71,92.81,34207
EOG,2017-07-21,15:27:00,92.82,92.85,92.78,92.83,12970
EOG,2017-07-21,15:28:00,92.83,92.84,92.81,92.81,6739
EOG,2017-07-21,15:29:00,92.82,92.86,92.82,92.86,3600
EOG,2017-07-21,15:30:00,92.85,92.92,92.84,92.92,4591
EOG,2017-07-21,15:31:00,92.91,92.96,92.90,92.90,8617
EOG,2017-07-21,15:32:00,92.88,92.94,92.88,92.94,6131
EOG,2017-07-21,15:33:00,92.95,92.98,92.92,92.92,7406
EOG,2017-07-21,15:34:00,92.92,92.95,92.92,92.95,5533
EOG,2017-07-21,15:35:00,92.94,92.95,92.91,92.91,4220
EOG,2017-07-21,15:36:00,92.91,92.91,92.84,92.85,5416
EOG,2017-07-21,15:37:00,92.85,92.85,92.82,92.83,6818
EOG,2017-07-21,15:38:00,92.83,92.84,92.82,92.84,6134
EOG,2017-07-21,15:39:00,92.85,92.92,92.83,92.89,11754
EOG,2017-07-21,15:40:00,92.89,92.90,92.85,92.85,7053
EOG,2017-07-21,15:41:00,92.86,92.86,92.82,92.85,12547
EOG,2017-07-21,15:42:00,92.85,92.90,92.85,92.89,8502
EOG,2017-07-21,15:43:00,92.89,92.89,92.84,92.85,8752
EOG,2017-07-21,15:44:00,92.86,92.87,92.85,92.85,7073
EOG,2017-07-21,15:45:00,92.85,92.90,92.84,92.90,13504
EOG,2017-07-21,15:46:00,92.88,92.91,92.85,92.88,17726
EOG,2017-07-21,15:47:00,92.89,92.92,92.86,92.86,28154
EOG,2017-07-21,15:48:00,92.85,92.86,92.83,92.86,9110
EOG,2017-07-21,15:49:00,92.86,92.90,92.86,92.90,9261
EOG,2017-07-21,15:50:00,92.90,92.91,92.90,92.91,14452
EOG,2017-07-21,15:51:00,92.91,92.94,92.91,92.93,14357
EOG,2017-07-21,15:52:00,92.92,92.93,92.91,92.91,14034
EOG,2017-07-21,15:53:00,92.91,92.92,92.89,92.92,16081
EOG,2017-07-21,15:54:00,92.91,92.95,92.91,92.94,12978
EOG,2017-07-21,15:55:00,92.94,92.94,92.90,92.92,19646
EOG,2017-07-21,15:56:00,92.91,92.92,92.89,92.89,15628
EOG,2017-07-21,15:57:00,92.89,92.90,92.89,92.89,13021
EOG,2017-07-21,15:58:00,92.89,92.91,92.87,92.90,38536
EOG,2017-07-21,15:59:00,92.90,92.95,92.88,92.93,30066
EOG,2017-07-21,16:00:00,92.94,92.96,92.91,92.91,43169
